900
3999.43349933624
648.556783676147
1
128
8
96.2299480191688
96.2392146939097
96.1893276385283
96.1570939284495
96.1958220192381
96.1395013228118
96.1175608604279
96.2007669566453
96.2682025584521
96.2790214415365
96.2503051382878
96.216652639724
96.1941983065809
96.2414225254177
96.3021608518083
96.2721858359613
96.281127397873
96.2263122675678
96.2024330473678
96.2723917072697
96.3295342252129
96.3161553133078
96.3133198252658
96.3070673097024
96.2381787160136
96.2868399563797
96.5179588025808
96.5006779602615
96.3366982410021
96.3297489286727
96.3882546984998
96.4342317349045
96.4472480583039
96.3534611342094
96.3859247908399
96.5487343744822
96.4938200066521
96.3821021827089
96.4189846798838
96.6619076033672
96.5446428351883
96.3557034520674
96.4344629493116
96.616368660644
96.5959166076117
96.4448724219016
96.3354194129679
96.4315401162868
96.6599424799114
96.6009839873393
96.4528935212937
96.3799134485586
96.4740802593973
96.5615372597417
96.4963896496677
96.4315810545148
96.3762632391631
96.3602248565597
96.3602015901264
96.3434588182479
96.3578914690036
96.4098160876001
96.4304138233382
96.3721866196354
96.3827343192334
96.4410837190587
96.5622678105536
96.6855553912486
96.6011828937749
96.5305719727128
96.5465064936749
96.4875966805512
96.3328922697464
96.2466402023075
96.0938492043808
95.8299921340434
95.6901075573208
95.5580082120834
94.9341983863244
94.0859547650609
93.1475762397924
92.4158330770253
92.2712058076763
92.7749174135743
93.1513393121054
93.213525950631
93.3141606868101
93.2020103428899
92.8162905854702
92.3654513992613
91.8499771680881
91.3363161312043
90.9572847331525
90.8050468070779
90.7574791516171
90.4888312196047
90.1985852520272
89.9392265137057
89.7220255964176
89.4422228165551
88.8161565871924
88.2871291843413
88.1986010888119
88.3158257497127
88.2603653657492
88.0268607853051
87.7445254709313
87.4884999014244
87.1963168712399
86.8831742364209
86.664173037848
86.3993143283948
86.1056699899921
85.82124895621
85.4756211812005
85.1976384573407
85.1024010879392
84.8532095659859
84.3741379888658
84.0130971126479
83.7884448789825
83.4931710331083
83.1367451446445
82.9044839182277
82.6895956090136
82.351285017327
82.0598847859762
81.880365143966
81.5999768995703
81.1652068133352
80.857056592321
80.6818398564886
80.4700000424591
80.1730678339798
79.8131747479423
79.5330487218064
79.3375069557858
79.0855591894966
78.799854791191
78.6218586992166
78.403793188126
78.0757951716509
77.8095555140113
77.632229298198
77.4953229714581
77.2967952610064
76.9958340744481
76.738938911551
76.5985901337476
76.5420188227798
76.461361706633
76.3600183219749
76.1894655188078
76.0066677864003
75.9107745180171
75.8865781366864
75.9040256546554
75.8407017328629
75.7108973569047
75.7629972106901
75.775647267379
75.7263521879788
75.7465210339586
75.7851680020481
75.8453337999721
75.9454602546306
76.0486639293019
76.1752351328598
76.3161179936307
76.4822687523095
76.6134245287256
76.7932399279647
76.9594392185254
77.1002012285459
77.2816882214539
77.4489557711342
77.6483817712736
77.9476162382356
78.1689618360624
78.3475382647188
78.5548070107122
78.8170618251237
79.0089674709941
79.1100681598664
79.2104259897968
79.4158995292073
79.7634229855739
80.0252792452446
80.143353297202
80.3116481003256
80.5371311580216
80.753819029864
80.9105125461798
80.9992064541365
81.0934835206902
81.3476587101604
81.6310762467869
81.8304899067615
81.9225869487305
82.0765603544924
82.2632071331175
82.4365074075073
82.6419410897405
82.8604426749065
83.0052966415198
83.2476009824472
83.5388138444106
83.7181460030463
83.8775027469564
84.0970797090362
84.3313209047359
84.5699967981765
84.86268815835
85.1557325485029
85.390370703111
85.6254909555362
85.847190699299
86.1216021760102
86.4179657172027
86.6505131256627
86.8786594918904
87.1424866871208
87.4112663071972
87.6582624947974
87.886687604488
88.1831657871646
88.4303926514552
88.6024342698991
88.8260063297171
89.042931892015
89.2224763984767
89.4145615362938
89.5981594935122
89.7791430991652
89.9411737805572
90.156272568014
90.3777513806702
90.5308012866475
90.6969975338237
90.8512026651339
90.987974899691
91.14699014854
91.2951381196357
91.4476501918555
91.5900791963642
91.6962228377846
91.7969682282829
91.8367027915651
91.9381023459941
92.1289492243011
92.2860753368759
92.3748103027428
92.43513769069
92.5006466192035
92.5709502747241
92.6548728689215
92.7145366197624
92.7664176770047
92.8380838085584
92.9393482044803
92.9952571108161
92.9723256315205
93.0200402992444
93.1470113614341
93.171971923178
93.1419677000977
93.1521222152482
93.1919097968551
93.1711397405054
93.1309357538861
93.0640240305828
92.9681779965359
92.8684751544151
92.8141901526979
92.7664535591664
92.6684437692604
92.6013025549577
92.5215399731874
92.5145710341977
92.5569452259727
92.5378431362378
92.5137957700547
92.5147883237787
92.4780383871382
92.3710699547224
92.229534650327
92.0755022928664
91.9787504614964
91.9373129717589
91.8432316795437
91.7784503380492
91.8360504791504
91.9199128584651
91.9911124154731
92.0505610404713
92.152531385226
92.3011175284801
92.4315890556822
92.5584832339553
92.6806283106784
92.7879078221235
92.9526902018972
93.1502095631636
93.337437858759
93.5088632113886
93.7055384299288
93.8823533386246
94.0214096556926
94.1537471623678
94.2860375818397
94.4337820758025
94.5930922088406
94.7011828133362
94.7490707151543
94.8033062136675
94.8681522546719
94.9115559001141
94.9587377453989
95.0110108386433
95.0322071822191
95.0215197026697
95.0359177952202
95.0944548810684
95.1990590845775
95.2573132005413
95.3010435635635
95.3127060308458
95.2826983976879
95.2671172791462
95.3174269519004
95.3600777209305
95.3696112532591
95.3863474586605
95.4271101219301
95.4337124865063
95.4241889996583
95.4533910122509
95.4734701785025
95.4598933039185
95.4533173726103
95.4774754467943
95.5074862553589
95.5216582149218
95.5425011976473
95.5451516792712
95.5522017636461
95.58264812968
95.614302100358
95.6196073508566
95.6094939967766
95.6350475959739
95.6674295995977
95.6548187338022
95.6438038835776
95.6815974156064
95.7169033453119
95.7216670346354
95.6901115970586
95.6850494817072
95.6977350872117
95.6735510805937
95.6589502099564
95.6869193383129
95.7320710660786
95.7735330518669
95.8056591782998
95.8100425678049
95.8214472231905
95.8949460958456
95.9405878047013
95.9204807035512
95.9264043424011
96.007476819475
96.059072825189
96.1149897726243
96.140869976202
96.1806610574444
96.2458606918565
96.2616395277154
96.2708280967379
96.3232631788208
96.2979396187883
96.2938435277588
96.3383984260166
96.3766722473601
96.3389854872374
96.2525994427285
96.2409120719565
96.215981353605
96.1873528379441
96.1973828287383
96.2209312504116
96.2202635129126
96.2799616395212
96.3806905604634
96.3699515962542
96.3403787696711
96.4090029392353
96.3967171622034
96.3683435919376
96.4152505254965
96.4512002116384
96.4347524412216
96.4109447458495
96.4311916582703
96.4665089539273
96.5265278590707
96.5057412590186
96.4562044636516
96.4529812379933
96.4654867802476
96.4661322117023
96.4632345862651
96.4802079419858
96.4551716090255
96.4381094041957
96.4534006716667
96.565260615281
96.6379427143972
96.6036590612419
96.5643639924589
96.5354677010315
96.5498714113041
96.5329159145655
96.5097574208179
96.5094277566469
96.5094417342226
96.5306018764549
96.5441663269856
96.5203731839779
96.5168282504863
96.5282928410181
96.5398273174956
96.512204205112
96.4712911030621
96.4395066410539
96.4517253894102
96.5972491570397
96.6416281588964
96.5422570579033
96.5529318854668
96.5437086691097
96.4238545309556
96.3524532063674
96.3806911790511
96.4090210732769
96.3683587028038
96.3603548294234
96.3122615993229
96.1953724580323
96.1848575508434
96.2660606045048
96.3164719147329
96.3143870420626
96.3146781995611
96.3492489643867
96.3994701909734
96.4104959679454
96.3664047366614
96.3396165742837
96.3807032537524
96.4790973183664
96.5566429014362
96.6474626042115
96.7763225593948
96.8058352244164
96.8829988706598
97.0487597735923
97.0616877673535
96.9912480583757
97.0145661241008
97.002021936283
97.0198221621593
97.2097780153903
97.2958110363441
97.2901820733959
97.2695119213034
97.2255486957096
97.3822354048397
97.513758371919
97.445521376244
97.2910986578601
97.2596780563895
97.4730868424053
97.6716076262986
97.6270114975042
97.5940242696256
97.583508553874
97.618647259656
97.8182167211733
98.1314191168667
98.2886655961773
98.4756570000762
98.5949382457911
98.3368587485635
98.1475766511762
97.7781214551372
97.5043600734194
97.4749933452736
97.3297222963942
97.1579314960938
97.0824197516816
96.9593910698132
96.7781230405185
96.6384009760711
96.5493464836019
96.5874082821791
96.695023503178
96.7055823493525
96.554987015839
96.4764573270782
96.6091094244457
96.6813864098875
96.6449065394507
96.6381004638571
96.6341772972221
96.6120900515798
96.6206117903907
96.7454042784835
96.9018580778349
96.9763324807616
97.0407734283094
97.1308042141949
97.1828610383115
97.2188756695597
97.611009421536
97.8234829094311
97.8495051584818
97.9094333887098
97.8800104636986
97.9857586713568
97.9471307707343
97.8429914374782
97.9874109993076
97.9051564048433
97.6107272575255
97.31335776683
97.241292659544
97.4871016853625
97.6505267042796
97.4666763304504
97.4840782956559
97.7877157945297
98.0092630927215
97.7497706302401
97.4946594619742
97.5087123201127
97.4087992186714
97.4178343843796
97.519914386919
97.1796064035098
97.0948427659519
97.3065686377018
97.2348029449292
96.9962155070888
96.9481420406713
96.9034501039921
96.9139098646596
96.9597892450009
96.9244222295896
96.9301407988484
96.9677871904248
96.885248440679
96.9050883598752
96.9312365691554
96.9319989370456
96.9687552335949
96.965337425453
96.886414880232
96.8627084084831
96.7895239997053
96.8006329295669
96.8434385273318
96.7719899018719
96.6909375556701
96.7396445810376
96.784020454112
96.7887603850929
96.7666314888584
96.7476721492248
96.6720271637286
96.6530357738757
96.6462225786033
96.6310822509241
96.5832481986749
96.5583284752834
96.5277921311992
96.5019829331889
96.4095712062754
96.3260518471188
96.2439452533137
96.2043381844714
96.117297406857
96.0252828966497
95.8700425324552
95.7056386014694
95.497721303308
95.3161640304802
94.8558848392499
94.1433283972288
93.1736449959986
91.9934340447819
91.0193096863596
90.455834732812
90.2082128109111
90.0603916137882
89.9265798214055
89.9303301513805
90.3020636558569
90.8481208207846
91.2385831060155
91.6244065593235
92.0754794142235
92.6254215374724
92.6847280269453
92.6327163311924
92.4615755690261
92.0250527288766
90.7407077394013
89.0558084319182
87.2676104100035
84.1345998110439
80.1731972460369
77.3160697451916
74.0601134762418
70.508906439902
67.4382607933143
64.4331768567386
61.8806880379731
59.7009534419145
57.3636717842634
55.9332497352608
54.5892602221919
53.5463861361497
53.4301136105272
54.8373702570537
56.5146884290457
60.0649322702275
64.4934226160703
68.6860061174534
73.1381942955089
75.8942138985181
78.5274932063533
80.9741573584649
83.0453751796314
84.7327537133961
86.3007216560009
87.5084780614981
88.4904359070105
89.0649086533468
89.8138762820057
90.5566926958829
91.0710617658487
91.4380642549087
91.4503577797619
92.0396610191026
92.628882946768
92.6408829143149
92.6816693486614
92.7089950059801
93.2309846139098
93.360117394864
93.3986679282904
93.4308356984829
93.4780298095221
93.5679678063091
93.4775953491745
93.1475400775142
92.936526536659
93.4193593500708
93.5711764695704
93.5209617609004
93.623216423385
93.5708586024452
93.5973318343626
93.4778384466638
93.3053402023491
93.1038318843787
92.9209169924363
92.5828717900923
92.0678563110459
91.4693142830184
90.9083087409958
90.7759200466614
90.8515422052667
91.0035836607775
90.8716687984009
90.4729553771266
90.0019390086173
89.555043383996
89.2952855003549
89.3214896541767
89.5278181995288
89.9097496296043
90.0714599652257
90.1662021613561
90.3288281019915
90.4486391736009
90.4781479274182
90.2681451962299
89.5996786623235
88.4919147605708
87.3425298533463
86.4361472744944
85.9096385558873
85.7932318166593
85.9724451416347
86.6892855791771
88.0484554953535
89.0130489806035
89.4411909645892
89.5036756643549
89.4044187092154
89.3177620966509
89.1716836434086
88.8281772037924
88.4387144070435
88.1584198163378
87.9351980712885
87.7742056303486
87.6783311974732
87.5687584781173
87.3201041285846
86.7070674101488
85.11290454563
81.6054016243383
76.0178081923377
69.3226254639637
62.3034715403078
55.5024829231538
49.9148393701217
48.5938007310745
54.265945618559
63.8580804208557
71.1698927512857
74.8594296924344
76.3356831056778
76.7804523686986
76.785141701861
76.7467466414568
76.8941436095684
77.3693826841927
78.2051444623011
79.2922440445058
80.4133741197862
81.4874408641881
82.5765915429679
83.5840228403663
84.5383449497092
85.6400195020094
86.9230003634895
88.2150541822617
89.211770889107
89.6432182922557
89.5403154920301
89.0701460746557
88.2826002657043
87.157852074583
85.6988585955703
83.9812635785194
82.2295810455589
80.8495323234528
80.2850648841704
80.5669401034704
81.3018621731447
82.0026257775986
82.3137257368155
82.0870952941033
81.2913921587791
80.0486580483917
78.5919703979098
77.0685210473146
75.5647959751469
74.3164560133763
73.5680315529741
73.2480541923518
72.9765497157412
72.5069868162639
71.8050961777986
70.7942476676889
69.416320667526
67.7665279932745
65.9801993964961
64.1823620200798
62.4501259212244
60.8549018245953
59.4360720330634
58.2207801737684
57.1829660857499
56.3850513654008
55.8825985396609
55.6662352493434
55.5769389273234
55.3741407053739
54.9050535512982
54.2727884864484
53.7833315636961
53.8110256670784
54.3837637722372
55.2694937495093
56.0939205383739
56.3806265824401
55.876084148919
55.0405331970187
54.6075720470184
54.966417118891
56.1022396566796
57.8831042024026
60.1524496475852
62.7147534978551
65.304040531483
67.7780720123638
70.1801379449849
72.6687622406382
75.1976025802094
77.3983107235213
78.9567054025467
79.7858361179992
79.9454387246625
79.7924945356809
79.8027212456576
80.1394465809344
80.6409153186902
81.0036500868147
80.8859191084183
80.1989746444176
79.2096187419702
78.3077782687201
77.8660857423056
78.0688727252976
78.5155619493319
78.6715012778311
78.6039691069765
78.5343047195376
78.3447888844021
77.7931127319949
76.7546941625378
75.2876760275616
73.47731475878
71.4917904328359
69.415572952893
67.2018512240863
64.8280327355899
62.2812747170899
59.6214923667084
56.9948902272469
54.5034627180956
52.3225704297007
50.6868015492327
49.773912041026
49.6039879615004
50.2060102766388
51.5875089795548
53.8294128576069
56.930805579059
60.5914536257908
64.3044230275088
67.6014625508039
70.1190836237971
71.946189771473
73.3501600375332
74.424572045749
75.2488586848998
75.8409806335878
76.3238138840888
76.9353715227059
77.328502635786
77.0052340921112
76.0437202600819
74.2521251571828
71.7656955252621
69.6432570695663
68.5852881039246
68.5893719510498
69.6856785363474
71.2496284655843
72.1064732886511
72.0428999691514
71.6290291423376
71.3025946248474
71.2022180572022
71.097155288338
70.6393123442627
69.596899737107
68.1164428678681
66.8650740826994
65.981596712706
65.1655587425905
64.4569632870442
63.8111579118148
63.4431641960132
63.4601599425003
63.3274993577471
63.1356473876927
63.5662791649873
64.3658448842472
64.9607755131951
64.9408262114263
64.5610705452762
64.3360220489314
