900
3999.43349933624
648.556783676147
1
128
8
92.896964668676
92.8376198224866
92.814007734691
92.8782567423397
92.9031703321174
92.8172077700466
92.7824457443436
92.8645805617023
92.9234613439918
92.8938904579926
92.8309294526285
92.8298337228546
92.8439449286337
92.8844454782928
92.9190755470683
92.8483857094485
92.8872147519142
92.9442553267025
92.9469026317051
92.9718874050254
92.9659428099954
92.8961188236595
92.8563935895616
92.9071270781558
92.9503562908142
92.9800935696819
92.9285059691903
92.9699565578227
92.9989282677064
92.9768080232129
92.9898067661387
92.9692334950667
92.9805717091117
93.0495093144987
93.0154174724981
93.0222814209827
93.0564581578969
93.0711776031878
93.1180985322677
93.0351694215096
93.0803607669802
93.1252269018715
93.1050466470136
93.0064320811854
93.0292837668696
93.0666373107222
93.053004110767
93.0608396841007
93.1080734550215
93.0962298927118
93.0835112470029
93.1065793947034
93.1481914928029
93.0895342170509
93.0393119382391
93.0664341839986
93.0506133670125
93.0135670496598
93.0167581029632
93.0249578267511
93.0784967963858
93.0715835516972
93.0299610048182
93.0793470101246
93.1055670130522
93.2185133179932
93.3327981919732
93.3977513989453
93.3318749281859
93.2849081043086
93.3426509556618
93.2447687723465
93.2096132159959
93.1688953454625
93.0481894528016
92.9657388829376
93.0152500145648
92.8047569734477
92.4000591811283
92.2027178369891
91.8066750158064
91.4340939721277
91.3569623618532
91.3433823062234
91.5280071702204
91.7889678276064
91.7888314663297
91.6093785816666
91.45013229955
91.1864074009608
90.9500326549778
90.6815643757921
90.5443728202909
90.5106447120282
90.2269614810226
90.0586516296742
89.9619833012805
89.8008478083237
89.7119389372566
89.4953844415776
89.2405777041314
89.096548023838
88.9115221683167
88.8310804958231
88.7390304665835
88.6441591672818
88.5358690579625
88.3674160698562
88.1108564293211
87.926226121336
87.842473988025
87.6537872668964
87.4487816877458
87.2282452429509
87.1563355085255
87.096211991868
86.8134287509941
86.570037088016
86.3442843784401
86.1754376620834
86.1313040699234
86.0561144860397
85.8291731329047
85.5665757202043
85.3260673068965
85.1534750836604
85.0543461733214
84.9462481657852
84.6781757327754
84.3934705808374
84.3694693207771
84.2830144066602
84.0799751322533
83.8733542854643
83.6203231149735
83.4450723939386
83.3131399332924
83.2080704335365
83.1025214319579
82.9615071856277
82.7761883187246
82.5649169750456
82.4196131288043
82.2844198609975
82.1735111997325
82.0364134260132
81.8629766144825
81.8077081213025
81.7577093486418
81.6823672906881
81.6165369185198
81.4806115759832
81.380236660634
81.3965458800359
81.358753412725
81.341065087315
81.3514096287331
81.2513934829212
81.1941616884022
81.2015511015216
81.2538608211352
81.3167094067703
81.270194034752
81.2288684816834
81.2440612274194
81.3034105638343
81.4402306254548
81.532987758567
81.4967340911141
81.539889657956
81.7305497521955
81.8483243742941
81.8700734637979
81.975691539032
82.131265203145
82.2852797135557
82.3701951992089
82.4588561929766
82.5788195561313
82.724181433032
82.8551352704793
82.9717643630153
83.0652455466502
83.1274857963693
83.185238898357
83.2953599734845
83.4864432377629
83.62524910613
83.6301408125383
83.7162352458618
83.8794939576531
83.9934553504722
84.0641989084427
84.1051766874998
84.1830754833041
84.3464275660305
84.4664675114963
84.5219468718722
84.5707441332439
84.6569015931936
84.780036796831
84.8272497619758
84.8946333683369
85.0834121309923
85.2216200340663
85.3030151709867
85.4367863884164
85.5499488549525
85.631306325122
85.7601083406876
85.8918732878944
86.0347879688571
86.1644077820214
86.2485558827569
86.385766312074
86.556730374728
86.6622377698881
86.7648196639944
86.9186184144821
87.0503861399164
87.1523461444567
87.2789915824624
87.4262138953458
87.5505124265103
87.6364534255357
87.7846110794943
87.9108725035344
88.0421052164255
88.1612691997797
88.2339898845511
88.3821231331893
88.5117259910775
88.5670115008352
88.6819324660386
88.8111292284838
88.8683379686733
88.9239501811316
89.0552726217738
89.1877010256964
89.2145029073329
89.2344758017183
89.3519242015408
89.4907006838986
89.54577330019
89.5691630862498
89.6519943686784
89.7569332662388
89.8432430050375
89.8916459617039
89.9201400067258
89.962681390719
90.0401065296612
90.1388358706197
90.2161246481132
90.2505031942416
90.2842308392325
90.3040528369106
90.3376746944639
90.3982635001865
90.4099315504867
90.4479328705796
90.5087235474354
90.5307199456592
90.5711117574419
90.5541788433132
90.5551258619412
90.5939736360573
90.6159387231599
90.598943524798
90.5996051713099
90.5974504461101
90.5776599591853
90.5362981893292
90.486824611148
90.4390140124349
90.3934438974509
90.3688982661679
90.3757525426527
90.3849337481287
90.4113867927954
90.4114304150477
90.4036964705217
90.402991153387
90.3716745695522
90.3061138726153
90.2636871003266
90.2528746894304
90.2607381572821
90.2075049357685
90.1117312431067
90.0519895503945
90.0315517589029
90.0953852563527
90.1673037138961
90.2016836173716
90.2120669116403
90.2347041780273
90.3040678861825
90.4128554106921
90.4878915638751
90.5502461862411
90.6276598407446
90.6880000851229
90.7514534179388
90.827141998141
90.9240854239556
91.034878973954
91.1086351209074
91.1618544161914
91.2385687153925
91.2945695377838
91.3541667270248
91.4170050145903
91.4397446090501
91.4899548033325
91.5312585018922
91.5443416097736
91.5562975579517
91.5915263637895
91.6278440150954
91.6436880932923
91.6562651938698
91.6867425978466
91.7036834612954
91.7273194532577
91.7331208348669
91.7427600531886
91.751494958189
91.757626461455
91.8061108358508
91.8266615599011
91.8335897115061
91.8607578762575
91.8602263162965
91.8408453397631
91.8456936679244
91.8752302736444
91.8980847779504
91.9135283231705
91.9046741066458
91.8749407029595
91.8971381762
91.9615780463782
91.989471395789
91.9806010121144
91.9653178946273
91.9671481602621
91.9929416365276
92.0207090378544
92.0345571310563
92.0271967327997
92.0387106144772
92.0560724094545
92.0618453384285
92.0726252225515
92.0693135266216
92.0685441597773
92.0724282192921
92.0601244878628
92.0475086890779
92.0445731987362
92.0547058195977
92.0432762624679
92.0177372395321
92.0289847305011
92.0917433621102
92.1667127850177
92.2083546264516
92.19880127564
92.2067269884701
92.2353550360843
92.2937122015101
92.3656399632833
92.3921260161089
92.3908032482301
92.3849192146492
92.425841863229
92.4573382567228
92.4857792318617
92.5409724836558
92.5561458771214
92.5576925641151
92.5138248010462
92.5402496660917
92.6037737426258
92.6247815736944
92.6031006885813
92.5453184922815
92.5158029920499
92.4812573162559
92.4273300753652
92.4560097038783
92.5057475981014
92.6063015136988
92.6331371573544
92.6189617385589
92.6871550963143
92.73309040291
92.6724068723893
92.665659697146
92.7377130744763
92.8097396251571
92.7987995981867
92.7021718765718
92.7125850596791
92.7999530203023
92.7680382468256
92.7399293604595
92.749918552583
92.7622950148442
92.7886905240964
92.8058698838538
92.7900112640864
92.736219507288
92.7126871684931
92.7238467814257
92.7659147614743
92.8248032153708
92.8521668788493
92.8765613660905
92.9056829300607
92.8990813349484
92.859712150192
92.8462939972512
92.8753296743766
92.9166165819272
92.8892044716804
92.8564998079758
92.8789787749654
92.9068098939074
92.8869685676647
92.8777932255254
92.915957524008
92.9270173155787
92.8884567231656
92.8937041563926
92.954842039676
92.9854836804345
92.9796278048434
92.9566682125775
92.9149419215646
92.8659160376311
92.846327172431
92.8401621652939
92.8003214969509
92.8342858163974
92.8966043353842
92.8914791770479
92.8135867715929
92.658310671486
92.5727139285983
92.7087387650349
92.8284968789813
92.8435826959277
92.8502754272351
92.8838653959445
92.9215406853101
92.9049330720115
92.9053502476441
92.9722305021157
93.011191107345
93.0980260312809
93.1509867402097
93.129488995823
93.2726616477057
93.4713462266125
93.4572481009278
93.4101877038195
93.4799619503778
93.6232283272948
93.7141172878979
93.6433647461907
93.6134149493973
93.7087691840421
93.7324918663062
93.7554350921397
93.7980079429492
93.8410664955297
93.9398850692142
93.9528714319678
93.9699148893423
93.9956376525833
94.0587386688212
94.411786276444
94.4978258230529
94.217776377183
94.2852860343395
94.4001864855231
94.4400482600741
94.7076563616062
94.6180856621615
94.4752153578746
94.6945070422553
94.89430081145
95.01812431267
94.8921435877452
94.698775761535
94.6840273346041
94.5871857672548
94.276580639624
93.931141791872
93.8291639720219
93.7449622185426
93.5727935498015
93.5284019268767
93.6242775717501
93.6342605689646
93.5467614946898
93.472149661036
93.5034140325507
93.6245890123309
93.6273550560397
93.5908076447057
93.6610773932034
93.6867864579858
93.6252967576543
93.6026869690948
93.7558269676925
93.8457163971823
93.8315965348229
93.9004822959389
93.9498029409611
94.0070991775549
94.1343141446559
94.287433705219
94.5706061439211
94.6817085390692
94.635205401861
94.839509330173
95.2801975042276
95.3267229761956
95.0945558274601
94.936309805533
94.8513116267436
94.881380349917
94.8841215902114
94.7158879195323
94.6730627738933
94.6696751887598
94.599776205333
94.5707269633971
94.7320255533255
95.0817156413887
95.3367484585448
95.1444968231001
94.786132085444
94.4225677422697
94.4354318091432
94.6251434816491
94.6179835677479
94.5784229950786
94.5641369814782
94.3487751088839
94.2187040919287
94.1214140619377
94.0766374336148
94.255929604718
94.3747939610539
94.1786038293652
94.0382232778318
94.093999488513
94.0451420768026
93.9552274740537
94.004258128335
94.0295050567771
94.0758452709571
94.063117218143
94.0619491909877
94.061450814572
94.0820218418909
94.1042191723994
94.0794509322149
94.0016259635114
94.0238739798493
94.0010177450964
94.0223504293422
94.0428196158027
94.0416214823185
94.066813686182
94.0373972720817
94.0174673097185
94.0399707710101
94.0567005909973
94.0493155974517
93.9737171716061
93.9654602650618
93.9937012270902
93.9928945543499
93.939138208556
93.9104686767268
93.8757489718313
93.8827002094488
93.8847961694036
93.8206327367265
93.7571050533602
93.7391709782319
93.6930580404641
93.6202790260509
93.3727462887121
93.0445790461876
92.6149637791097
91.9981302095619
91.4416260892251
91.1686496340668
91.043660954714
90.9840089253914
90.9304010702471
90.929317944114
91.0653260076744
91.3056298847784
91.5836056034384
91.8663677835858
92.0746124172592
92.31180929017
92.405440886741
92.4514123140615
92.428609501978
92.1430552876603
91.2930671604022
90.3321912830332
89.2756854554821
87.1437681223953
84.3692186459517
82.3855028648241
80.0075213190764
77.4202789717167
75.2367368122559
73.0917189246119
71.2616994034087
69.6351283465328
68.1938347570985
67.5112461365849
67.0315432487648
66.5398251454981
67.1177586368203
69.2030558333739
71.0116978583262
73.9268448116649
77.0861499236312
79.6269199840543
82.1195082491462
83.540556833605
84.833442435015
86.0344168734066
87.0429859940443
87.8362046339207
88.5377405458759
89.0674221646371
89.5250913588846
89.8205530958824
90.1890526904511
90.5297538141636
90.7912060851196
90.9739209695621
90.9791903042307
91.2506905678184
91.5472051701712
91.5949080175315
91.64315400756
91.6589760521857
91.943631706361
92.0163504986314
92.0889031895458
92.162422588768
92.1917200962447
92.2352309139782
92.1994386858096
92.0711372583665
91.9890511913424
92.2499012018429
92.3768592127993
92.3841477773037
92.462601047326
92.4582533438316
92.5245671159075
92.5095096016212
92.4486358627505
92.3369495437511
92.2776813728888
92.1151008892429
91.8935714780282
91.6326905134698
91.3213315298273
91.2608811995076
91.2968585639676
91.3966468050287
91.4153714863626
91.2482542134586
90.9700858464737
90.7229315974353
90.6164974505646
90.6492635643314
90.7481077921994
90.9736657671053
91.0656102036532
91.1261444860268
91.2391427455484
91.3248485922206
91.3291012716632
91.2180417577926
90.8819436287492
90.2887383561045
89.6619133045331
89.1650490906515
88.901649895119
88.8621904806366
88.9847197684925
89.3833092511469
90.0953210938211
90.5974294232409
90.831570455372
90.8640595858194
90.8307651619359
90.7917389265182
90.7070331800519
90.5031770765303
90.2657004711991
90.1194863996072
90.0314137043454
89.9633003338551
89.9061391621764
89.8318962059624
89.6783149016298
89.2733115032695
88.1689286685079
85.592090958087
81.2714332172864
75.9527806984354
70.328199758792
65.0479360878191
61.5811851522619
62.8445109951654
69.5817899634258
77.2762007120314
81.7949757240541
83.6977341911252
84.4048803727616
84.6226449851215
84.6458932795207
84.6567706271566
84.8175347474643
85.1766351653628
85.7002467997063
86.3226818099982
86.9241664521651
87.4717152970625
87.9921676758679
88.4482119442465
88.8645153676849
89.3348654909123
89.8968656361259
90.4943685513949
90.9630637659992
91.146388761237
91.040831745745
90.7417569715643
90.2835934816241
89.639404285019
88.7899384048095
87.7575083024535
86.6850997741523
85.8533932551958
85.5248580676285
85.713757021057
86.1416234259136
86.5233984271852
86.6897472901872
86.5233865067891
85.9910856843442
85.1958651652949
84.2817771299228
83.3269146930938
82.3963081669784
81.6158800804476
81.0882013330333
80.7825280644236
80.5013948527033
80.0905963598034
79.5300204264431
78.7574738030622
77.7046239873013
76.4554081656647
75.1437650239218
73.8696885480063
72.6781193299821
71.6444464716051
70.789786128811
70.1028173796222
69.6215631322442
69.4149582621742
69.4913682583889
69.7880625723775
70.0948440472554
70.1826506971301
69.959132797551
69.572279292376
69.3128317471642
69.417268319637
69.8997588886647
70.6256951542764
71.2720219431905
71.4337998113633
71.0087790407757
70.4393937481868
70.2710286410694
70.7361584161442
71.7805662402334
73.242076725902
74.9212968417991
76.6807023474895
78.3928857793168
79.9436837671444
81.3681639859349
82.7989583222088
84.1876516206403
85.3599808068182
86.1366582154567
86.4971098559481
86.532168496066
86.4257518070973
86.413587218559
86.5969781303201
86.8843284481787
87.0433134335806
86.920798753519
86.505429325897
85.92982637686
85.4355295980431
85.2264113955079
85.3171753797651
85.4509071452226
85.4436760509313
85.3511496550184
85.2158826299622
84.9988741533688
84.5450992027171
83.7379857290006
82.6210714229389
81.2673624911272
79.7445740550444
78.1439773066384
76.4446775694028
74.5820487466623
72.5794846722371
70.512953098524
68.5384907972546
66.8432618239465
65.5818561808407
64.9099831876473
65.0220645542404
65.9510432425607
67.5423760405733
69.7374919595939
72.485679243328
75.4475030809192
78.3442261909564
80.9007154090149
82.7897828948174
83.9958811311302
84.798367073446
85.3556929783516
85.7046612244514
85.9993573999102
86.3388602173052
86.66542737355
86.8487724953067
86.7847457816159
86.4694874899206
85.7207002693766
84.3855861256477
82.8391938642826
81.6846243373884
81.183450036827
81.4003406433749
82.3387850791012
83.3644217456131
83.7285052603659
83.5531407836336
83.364995202205
83.3371826432987
83.2636387875394
82.9877533234078
82.4603973298857
81.7285178760673
80.8900838370354
80.0939675552126
79.4334075860542
78.9118831943053
78.7257600367917
78.7319812132313
78.5517555709989
78.4624645946885
78.9136109179291
79.5138461916998
80.0116403176475
80.2401643861385
80.4259842626389
80.2055881331593
79.9493726658383
80.5975289996303
