900
3999.43349933624
648.556783676147
1
128
8
95.5051501230148
95.5028069995971
95.4841881272229
95.5063000356028
95.5131532202777
95.4903868100033
95.4842026405771
95.5262391585409
95.4827974592995
95.4188396510989
95.4950191791102
95.5762378059802
95.5350417000184
95.457895876929
95.4932605283732
95.515123562603
95.5124701359331
95.5052429659701
95.5422303641191
95.5662469203859
95.5365824922451
95.569290649218
95.595968268477
95.6043628088112
95.5739148955876
95.5307170554092
95.6933774933892
95.6705627448542
95.589247369402
95.6449519434981
95.6915956294883
95.7210219912883
95.66245110398
95.5923362372606
95.6774709563749
95.7570162480055
95.7468400932592
95.7204181503602
95.6656145508981
95.7978198728087
95.7947663601995
95.6234395056609
95.5867626862476
95.7266484009462
95.8519810145819
95.77827527605
95.7053664960229
95.7231297523324
95.79289665627
95.8267245075687
95.770236808804
95.6780428221464
95.7191356271185
95.8255859307137
95.7866734225159
95.7057992623977
95.6686276257406
95.6708188770672
95.6993501712556
95.6992405402335
95.7101452865382
95.7360013439831
95.7506878060961
95.7247853950925
95.7563548095503
95.7656925083867
95.7542035383003
95.8930858830952
95.9573111765612
95.859119501515
95.8506708921091
95.8053249626377
95.6352873387983
95.6082774575374
95.6697178558218
95.5081633091712
95.2720838104354
95.0798370885105
94.7752521620155
94.25974298513
93.5497741395371
92.9869345541745
92.79128656274
92.9695874263378
93.2425934593085
93.3127158873775
93.2605043521864
93.1178126577513
93.0294493122582
92.8506022820408
92.488882126937
92.0788787913487
91.7775399292038
91.5857980324206
91.5375874781676
91.4158748600235
91.1739408248442
90.9299280466501
90.7820320797116
90.5628090470006
90.1670698641829
89.7148944156892
89.3867235376511
89.4261364227612
89.4742871413972
89.3533603565472
89.1976540988378
89.0039384606397
88.7512561418752
88.4548775542749
88.2102468230565
88.1522062965954
88.0356159163448
87.745562512931
87.443053139608
87.2490718832485
87.1183439817695
86.8855366216178
86.5988542100703
86.3519626257592
86.1466498591238
85.9977992800277
85.8145705703272
85.543594304636
85.2363204836278
84.9828523781498
84.7587226315734
84.5341189886187
84.3803056352412
84.2384709992003
84.0352013055065
83.7391516814277
83.4780385620787
83.2751021179434
83.0522956775838
82.8784299681398
82.667150115046
82.4420612452565
82.3362664094577
82.1473721209925
81.8949470777285
81.7838330099778
81.5631444601478
81.2680148468279
81.1457019534459
81.0853415168073
80.9861710230544
80.8904568883223
80.7013783601778
80.4591097496245
80.3842266073152
80.4117602768372
80.3545932837312
80.1884839722373
80.0597494807478
80.128946518809
80.1843866676436
80.1420007295417
80.1146326810076
80.0739349881572
80.0264470483034
80.0475679944873
80.1200611207025
80.1661025874164
80.1860958885376
80.2915941238328
80.3704820675509
80.4664836449712
80.6100940397853
80.8079128340727
80.9768864838803
81.0597571029038
81.1388584779543
81.2808611948601
81.4624997434622
81.6955930982048
81.8725386503567
82.0413280355452
82.2257161362799
82.3399618411259
82.4745564836165
82.6956265775215
82.868414618471
82.9758633941814
83.0819051938626
83.2341783813492
83.4583611117918
83.6405674741466
83.7342756375793
83.8822500594018
84.0508780673961
84.2029998369958
84.307817690503
84.3630622361112
84.4576817603959
84.6892006120785
84.8961876979068
84.9993879925746
85.0686782356486
85.1727027597524
85.3006360458601
85.4222170116479
85.5743664675957
85.8152195536401
85.9557877264523
86.0714681683155
86.22710302423
86.3653864016161
86.496258281593
86.6513516446921
86.8937234887504
87.1432587546532
87.2736322491131
87.3923811255861
87.6472323857675
87.8822141418757
88.0178131022595
88.1796167933769
88.3943466117129
88.5931762512339
88.7797840191771
88.9774807119329
89.1132539499094
89.2539379705169
89.4339986677941
89.6582411650163
89.8344278823075
89.9546291435282
90.1012733924836
90.232335192046
90.358305728955
90.5078887023138
90.6890463773672
90.824329566295
90.9253085277653
91.0664676931984
91.2127072451396
91.349857499377
91.469377082774
91.6122452394188
91.7181721653044
91.7968067029228
91.8858705474253
91.9921156492699
92.0822553719801
92.1597593393905
92.2787384424022
92.3852515865361
92.4605456884248
92.4994865155968
92.5868931771458
92.7015232853389
92.7772987865686
92.8486350055402
92.9098617489895
92.9746948334596
92.9823914876408
93.0066322446624
93.0830969578781
93.1773350991924
93.2637109709423
93.3042328047493
93.2728984451765
93.3065082842137
93.3600297860683
93.4064339920809
93.4467206000083
93.4513355518225
93.4527441637403
93.4667788301526
93.4607509060754
93.444905456561
93.3847264625298
93.3035674434904
93.2872067295265
93.3091806555103
93.3060383231784
93.2604092525595
93.2023083669637
93.2024665370681
93.2489553807182
93.2727001831825
93.287572961896
93.2347938568113
93.1654205116691
93.1974066018036
93.1527348418676
93.0419130419995
93.0046769983099
92.9802919671479
92.9831733766404
93.0486102166433
93.0622106374105
93.0676963298825
93.130126881562
93.2160061977805
93.3048975962146
93.4073211444684
93.4559415204402
93.5052565181625
93.602616416157
93.6938792156106
93.8211888733488
93.9416963762343
93.980222046194
94.0418571987145
94.180680705104
94.3111605560408
94.4109462044769
94.4857074688963
94.5406903207634
94.6022741812087
94.638975254943
94.6632096135054
94.7411058203663
94.7894173696032
94.7727243263174
94.7808550596409
94.8342923012238
94.8822265196049
94.900934061648
94.9179950991282
94.9374084380759
94.978655280987
94.9940576455286
95.0145919548099
95.0373674945274
95.0360111626115
95.0586204526553
95.123020291365
95.1423638971458
95.1243823169749
95.11878740049
95.1319512636231
95.1418445058032
95.1736575537473
95.1967839286892
95.1911976783685
95.2118437940064
95.2321465406372
95.2206706805041
95.2369038337011
95.2656634394132
95.2916052785461
95.311897514873
95.3017817863775
95.3002529319038
95.3377139552533
95.3612229785969
95.3507328419695
95.3397259390575
95.3769886644001
95.4032195503299
95.4110057327923
95.418038739972
95.4271698198456
95.4231080355849
95.4184935554075
95.4213997430396
95.4217699144691
95.4334031589422
95.4636744609916
95.4798505226317
95.4892985073517
95.5038497437159
95.5115057138858
95.5236313580987
95.5467658401882
95.5615248823875
95.6050514735642
95.6354990751254
95.6651846726176
95.6753814662842
95.6890487006933
95.7428361192048
95.8149012093575
95.8387918848479
95.8216251706919
95.8274586167926
95.9068044330203
95.9599524560121
95.9764399943735
95.9617575332582
95.9809834439568
96.0085838635894
95.9525759561575
95.909929547135
95.904463145487
95.8453258816345
95.7958572854164
95.8111288969192
95.8228305239993
95.8446352785468
95.906736672003
95.9547989098577
95.9557478783261
96.0004908758046
96.0562863800839
96.0599734473415
96.0652864617064
96.0801614200865
96.0676661996453
96.0727108382024
96.1115951848716
96.1377309478131
96.1337607196937
96.115709803774
96.1211181958066
96.1413481962279
96.1350901266857
96.1095589947513
96.1034521808815
96.1088454769146
96.1462612836024
96.1647109352703
96.1419285571133
96.1194672164152
96.1379374865324
96.1540475282044
96.1905557415067
96.1878594274225
96.140537661469
96.1477866395967
96.2175172874549
96.1934462767502
96.1337611314738
96.1369751666817
96.1629543938068
96.1819712849453
96.1896788665312
96.2017888632893
96.1260161409422
96.0620548428304
96.1169552559088
96.1934824518582
96.2042160930692
96.1836627047214
96.1644013350678
96.1784809091745
96.2230680797367
96.2287258292341
96.1930924986894
96.1605746142699
96.1207730466631
96.1200633177949
96.1696193607145
96.1509216873295
96.1024157587053
96.0788296032086
96.093156894963
96.1503323491811
96.167891715633
96.1516506878215
96.1817640636281
96.1993106151736
96.192023078118
96.2078585939958
96.1995132936714
96.2359190049363
96.2986973603888
96.3170710265766
96.4007074930462
96.4251879720703
96.3721607684467
96.5528253824339
96.7393748365442
96.7034692267191
96.6157023976231
96.6975970343565
96.8840272185724
96.985571473465
96.9012753552773
96.7316130349831
96.7739594701071
96.9476892631941
96.9940236158911
96.954838551485
97.1070887368091
97.2778343620878
97.188774544908
97.1191233111339
97.2014624356686
97.3645293613642
97.3993558236797
97.3388208591326
97.4352355114937
97.6805884460652
97.6459818496174
97.4263509193671
97.5951361019341
97.6994561656973
97.713599271169
97.8292822938034
98.0025246332606
98.2048843972613
97.7769040845486
97.2468893622311
97.1501096719209
97.1447027643184
97.1081299575715
96.9579492914634
96.7566355241083
96.6775070736288
96.6478889943244
96.6210295053486
96.6082147544696
96.599490083825
96.5825685078145
96.5732532645031
96.5371696979327
96.5145475492008
96.5773677564268
96.6039456895686
96.5820545569595
96.6104600289021
96.599771004604
96.7220032392289
96.8784440745503
96.8437272196623
96.8343059867646
96.870291701546
96.9353501033799
97.1268292458952
97.4025512733221
97.3228034260749
97.1811407744914
97.3861344120562
97.5308955123637
97.6712802128971
97.9717028381835
97.9636386284406
97.7340556214559
97.5724758372627
97.6829975506232
97.7711010398793
97.6297810278051
97.4649431568633
97.4627343426009
97.547481818548
97.6458089876678
97.6034670070188
97.5516312856303
97.6707737643275
97.7394982041841
97.618043452397
97.5085424892392
97.5777404833128
97.5884218627685
97.4222064678763
97.3810817976658
97.3625664569645
97.352689620986
97.341284841989
97.3015772505834
97.1642715740301
97.0058567577053
96.9726758142196
97.0277976852319
97.0651810955698
97.0910450697451
97.0623671475935
97.0127952945997
97.0420084516204
97.0540422612149
96.9075185304151
96.8699213149685
96.9679839357854
96.9694094491812
96.945736521258
96.9619169098032
96.8938966368042
96.8777789930709
96.9688204650947
97.0052139092099
96.9472005211117
96.9342900614823
96.9419662059949
96.9671207383254
96.9971382565103
96.9896140192513
96.9156572321243
96.8760433912086
96.8483467956058
96.871817779343
96.8511420597182
96.8129872782523
96.7887267101031
96.7517270188011
96.7234805227536
96.6975695041101
96.6412122639797
96.6455848234227
96.6240309780019
96.5978051666569
96.5090906879825
96.3927449772349
96.2921500172305
96.1789044281239
95.9079406583648
95.4615274618296
94.7969156252819
94.0384316036551
93.4415576720862
93.0592608690329
92.8679136960834
92.8018534441824
92.7245974584561
92.6971812705598
92.9626643404825
93.336979447021
93.5948418737454
93.8304676889989
94.0906168281691
94.4292607786114
94.4081348680981
94.2843908910235
94.1453088680991
93.8466441061733
92.8803626686527
91.5805769435462
90.1660841977516
87.5667404830445
84.2563561487885
81.7549331004103
78.8619438485578
75.7305395194498
73.0727770835482
70.4730558387646
68.2710250591459
66.2971846328677
64.5063230588959
63.6247306972002
63.0796309006646
62.6203220770126
63.4054167902823
66.1108358437867
68.6151267307987
72.5090491995734
76.6482259496128
79.9562165071
83.0235823704757
84.7911468664518
86.4122909905353
87.858442911326
89.0286294296507
89.9392881053472
90.7544935891146
91.3646250080462
91.8797194788271
92.2087837046555
92.6681956091172
93.0625331526997
93.3141537585084
93.5023236626992
93.5735320554199
93.9277921575953
94.1970953179239
94.2140960048992
94.2710354543694
94.3662091253547
94.6711372540147
94.659989233063
94.6893523690185
94.7551114763171
94.8548111884819
94.9079432965709
94.8174502133248
94.641900738345
94.5525057315693
94.8981219006377
95.0324345217203
95.0195200594741
95.0691312641962
95.0508125349231
95.0790852720603
95.0207000015939
94.9278548551995
94.8317766601544
94.7278430495949
94.4878886675722
94.1669310658873
93.8017536753418
93.4478107870069
93.3801786475349
93.4544197275458
93.5823263388724
93.5277561380703
93.2832725752213
92.9598329444807
92.6878862356621
92.5260084511533
92.5447384143094
92.729016898163
92.9700335759579
93.0339358585006
93.0945688120564
93.1848049507993
93.2231357388237
93.209088895024
93.0189459425407
92.531963063444
91.7390449958535
90.9529748537247
90.3752149981453
90.0510185411043
90.0270957374064
90.2181399203529
90.7470566019247
91.653220517571
92.2561664289996
92.4848853031554
92.4958013098413
92.4191299276103
92.3439216831455
92.2194685243209
91.9404725412238
91.6222139496467
91.3849866221033
91.2229867998197
91.106800189689
91.0229955081991
90.9188832350196
90.6824932958744
90.1198946069779
88.7086589182848
85.5335243175492
80.2898935616687
73.8752268179357
67.1171185682685
60.7463497870471
56.4394645065786
57.9816613301363
66.6921582470599
76.6400622134692
82.1882271940367
84.2483217773707
84.8852965045934
84.9821345854621
84.8994133785987
84.8610726937758
85.01984987803
85.4509534928019
86.1170394974699
86.9047450933786
87.6674668588624
88.3630029127774
89.0144229893092
89.5915989411889
90.1306980622152
90.7265441974867
91.4437351357747
92.1644292546206
92.6454024780319
92.7770645256172
92.5989209709672
92.1799763848935
91.5371351319105
90.653634600992
89.5331587776813
88.2073768163518
86.8501579197994
85.8121044553151
85.4598077896014
85.7753039545076
86.3506330408037
86.8030376138335
86.930734235184
86.6283700213851
85.8740035475482
84.8085569835159
83.6077943684423
82.3665080394977
81.1483391353734
80.1107483953736
79.4200161634257
79.0751517061192
78.7980936373943
78.3300866374063
77.6195735244161
76.622263292079
75.2864090261533
73.700136402898
72.0324227337714
70.4381793604653
68.9662790015623
67.657327099822
66.529758737316
65.6171258028532
64.9369545378034
64.5734718779142
64.5751754487942
64.8785096876138
65.2225281400466
65.283877783291
64.9216675033069
64.3224143456541
63.8089273878432
63.678731979241
64.0477899726148
64.8269445162158
65.6010907962169
65.8179911052807
65.2254656160999
64.2828794120878
63.7875325061119
64.1590060226301
65.3272245058577
67.0994225343264
69.2556078447893
71.5727646471611
73.7862406342116
75.7927335370687
77.6948527729075
79.596699005923
81.3787086289834
82.834970094319
83.8130974351822
84.2671872902325
84.2696604164968
84.0766103515538
83.9848936781315
84.1362923852756
84.4181057658761
84.5539587447671
84.3455702254942
83.767746512893
82.9507268945015
82.1920042527981
81.7294301396903
81.7090827060462
81.9536710504158
82.1128095100978
82.1327880940933
82.0862317173025
81.9156053120039
81.4169313968772
80.4620948252184
79.1250889682079
77.5475886065071
75.8333660679445
73.9946527143403
72.0311084767732
69.8617413461071
67.5231864535171
65.1032572550179
62.7427065553491
60.6672043908536
59.0768391798818
58.1616789919126
58.1214695158755
59.0393156372004
60.9416437826068
63.7276856776076
67.2511722562615
71.2168937450092
75.0916337880749
78.3059014473899
80.5088229857387
81.7767111674672
82.4809604652987
82.9643322335045
83.4246480811867
83.7214884172649
83.8554534820425
84.0352306298879
84.1754727243904
84.0753498706198
83.6276536021065
82.670860049373
81.1235609863092
79.2601105092957
77.8635701570457
77.279983545073
77.4143404782696
78.4397122673828
79.752934029187
80.2687868379756
80.0181031634048
79.6203364596177
79.462840348381
79.4349511028842
79.1964765011607
78.5623963039451
77.6374102280217
76.509978674244
75.4003333222093
74.5151754723661
73.8325358421947
73.4160096881024
73.1954045280846
72.9619342631908
72.7197242890547
72.7974513051989
73.0793719391024
73.576027777207
74.2586524809055
74.6974743029755
74.5176146956675
74.1835217486577
73.5114015198938
