900
3999.43349933624
648.556783676147
1
128
8
95.6208089691747
95.6656511880167
95.6973683678211
95.7045386373352
95.674234700221
95.6863012976782
95.6988280929646
95.7002777620761
95.7035030477055
95.6965015325937
95.6985759276174
95.6761150126262
95.7075305982529
95.78998553113
95.7806799917535
95.7281356764338
95.7392103885067
95.7351531950917
95.7318679242038
95.7707530680383
95.7711797927141
95.7760702008136
95.7882073944783
95.7716781128522
95.7487468506278
95.8168601928331
95.9343803632579
95.8847894596375
95.8233388974448
95.8423120089017
95.8482008802767
95.8613817585951
95.8781640426451
95.8383964507382
95.8909694593928
95.9557853197317
95.8919449204196
95.8543060886365
95.9457641538752
96.0868912958191
96.0463940473811
95.9659972211261
95.919102264902
95.9617588650792
95.9872179443534
95.9125068929914
95.8938897471192
95.9818427715353
96.0907740501297
96.0314257316003
95.9243562692656
95.9092223631368
95.9189963955305
95.9618421017078
96.0010665888583
95.9632286000522
95.9618972468496
95.9513518808267
95.9502975951391
95.9847684544326
95.9548169095918
95.9236525615578
95.9640982823393
95.9957165579992
96.0563993501674
96.1363271409316
96.1610245118554
96.1311399748185
96.1423525242267
96.1157260845852
96.1481221555054
96.2927203593705
96.2060387480548
96.0454566246541
95.9760965530581
95.8876723483259
95.8666403549758
95.8727877389132
95.7077693235578
95.448317637731
95.1937472392689
94.9893414119377
94.9359698340003
95.0717160729965
95.0877772183235
95.0246791383569
94.9745344945734
94.8684545262423
94.6541894023274
94.3529361110267
94.1370315214304
93.981646885279
93.8428854620483
93.7748894998305
93.7119090612702
93.5211023008855
93.2897345081394
93.1102574828
93.0764672596605
92.977172067512
92.7496996232965
92.6237633508793
92.4910592195442
92.3561176507106
92.230273018186
92.0208904135003
91.8161468629844
91.6554345472917
91.4902000214634
91.3821957628324
91.4032737472702
91.1730507636328
90.7964266187168
90.6480118016375
90.5471187923959
90.3514820657322
90.1761564782555
90.0719749962964
89.8790019221393
89.6849629598001
89.5781218568168
89.4363284684169
89.2237116132354
89.0181099581098
88.8755681557377
88.7167087852769
88.5189023964366
88.4149124946954
88.3280002503378
88.1416163853829
87.9133059295338
87.6692501387817
87.5204140612562
87.4311598683331
87.3310588741996
87.2218788014641
87.0365939846532
86.8622477151294
86.6771220851301
86.5228364586361
86.5204560515836
86.440354891225
86.1410165954294
85.9353633833935
85.9109998738461
85.8233423935695
85.6315213198426
85.5813360300668
85.584307071287
85.4714180164975
85.4008258360976
85.2714528921053
85.1252981789333
85.1423043361691
85.1455550884872
85.0522698327006
85.0720408670786
85.0834021701113
85.0433861737067
85.1236700063055
85.133179486227
85.093458831329
85.1179845832511
85.1388969481237
85.1122912205408
85.1917375848469
85.3622348683095
85.4254693879431
85.4378869918324
85.5275027997653
85.6349343621071
85.6985984537606
85.6689104445379
85.7373502437741
85.9740526404048
86.151010763352
86.2597892143472
86.4107096359718
86.5166827209142
86.5971125842388
86.6860556532227
86.8278371703069
86.9754551763371
87.0342576152499
87.0172657635202
87.1225148267728
87.3590081291608
87.4976197653988
87.5226200231009
87.6715409438506
87.8572006131866
87.9175343269226
87.915261325867
87.8986970887478
87.9141248244222
88.1187517828051
88.3852931515385
88.4401914395923
88.428882801533
88.543044151066
88.627460800795
88.6557543958318
88.8227430994295
88.9604879210129
88.9633091750768
89.0668233109378
89.2290645465913
89.3750676410352
89.5135557191028
89.6357510983544
89.7342460602159
89.8544593860258
89.9985127986572
90.1502049246049
90.2601652563503
90.3596199409194
90.4876480469477
90.63580100515
90.780939401811
90.9284558500557
91.0460017225572
91.1723625733585
91.2500528659346
91.3659675688476
91.5300447808785
91.6624528897328
91.7309865305275
91.7944192258413
91.9241101226861
92.0586314536611
92.1617908315942
92.2382081550402
92.3039528837591
92.4244031807036
92.547188451287
92.6497092609179
92.7511187632211
92.8545314143845
92.9091500622892
92.966011655147
93.0300227609755
93.1681792229987
93.2891111657573
93.3108769932576
93.3779863391173
93.4543012145779
93.4724401152944
93.5494412281428
93.6169817509028
93.623747026441
93.6702757476757
93.7756914610317
93.7850507661702
93.7967450591804
93.8953291223504
93.9403009855655
93.95821242914
94.0073844640149
94.0179437640542
94.0288892901536
94.0565090027656
94.0804702169877
94.1130429596204
94.1519841813403
94.2058795921034
94.1481980797491
94.1015674252385
94.1750879026568
94.1964191127336
94.1514044168871
94.1042441427791
94.0588581008152
94.0064028940524
93.9300372822392
93.865278937326
93.8199389972298
93.7729652672396
93.7587115370914
93.7653734988797
93.7669385778876
93.7774975191341
93.7707054828135
93.7493215087988
93.7059277886148
93.6335109416566
93.5800503093694
93.5155570956497
93.4050969369319
93.3291575308139
93.3227618365165
93.2732237103473
93.2681702320993
93.3257005900036
93.3429982817955
93.3879750200914
93.4746660579939
93.5358965986432
93.5914083073549
93.6646213280006
93.7491097476905
93.8366782781496
93.9603599961472
94.070443574857
94.1731701864016
94.2809099364446
94.3940514395007
94.5092940611433
94.5796742938474
94.6487453237588
94.7529463772503
94.8434136357108
94.8960626190189
94.9788236725937
95.0335834005103
95.0098218584941
95.0414170269753
95.1155309619648
95.1631035837201
95.1857614581033
95.1902815832444
95.2074109941354
95.2019940617098
95.2109527449257
95.2844824437008
95.3527283993341
95.3529838326961
95.3347837666668
95.3475561813182
95.374052192609
95.4031213090914
95.436140693265
95.4459608407348
95.4486329563343
95.473406388879
95.4579361471363
95.4493120917479
95.4777335676882
95.4970436981166
95.5171835165253
95.5418016081561
95.5086086022827
95.4934888317786
95.5142452942605
95.5313069388585
95.572147691894
95.5762579454346
95.5673136232648
95.5910931656872
95.6115923645778
95.6419780709515
95.6785001793518
95.640673543156
95.5989129488487
95.6176406922
95.6604540164533
95.6985474546486
95.699713950554
95.702502601143
95.6972272165393
95.6887109805418
95.6860267493061
95.7061912024822
95.7463725631662
95.7218797721609
95.7359176139453
95.7831961847537
95.7750143976942
95.8074579422703
95.8443303933674
95.8600733350159
95.8839025036136
95.9013709939396
95.9204582224615
95.9456963897947
96.0147220242137
96.0908928610721
96.1047747116098
96.1414496969381
96.1807299678903
96.1830011024274
96.1327274270782
96.1679349994824
96.2066195850245
96.1744691420342
96.2024408667832
96.1953034781993
96.1694211731373
96.1843402863596
96.1632807688414
96.0455212394165
96.0091287523852
96.061720248222
96.1003722727909
96.1394429394689
96.2055167619998
96.2718109313766
96.2609941378115
96.293580834756
96.3237101380512
96.3013608937149
96.2742341803231
96.2368284264414
96.2799108946401
96.3126493514194
96.3015443673112
96.3839411993941
96.3818189946781
96.3418825670604
96.3425997477457
96.316552051219
96.3332750245564
96.3526435251243
96.3698615306069
96.3593232610303
96.3473812361217
96.3304674508477
96.3013039495885
96.40670396083
96.5216339586109
96.4652277169058
96.3828296573085
96.389214397642
96.3981799140683
96.3928691997654
96.4365503731875
96.4692062137193
96.4253046121789
96.3758600516412
96.3931867387659
96.3970584832399
96.4047622891376
96.4242405891775
96.3960475267401
96.4174449066083
96.4581432331749
96.43468971638
96.4065068164291
96.4915229701065
96.6148478385513
96.6047091828543
96.501352646502
96.4229430788953
96.4054035963099
96.4226999549657
96.4375483395439
96.4417593435477
96.4587070116702
96.4608342589059
96.4483383831919
96.3675563720814
96.3271220497835
96.4286498485051
96.4849298156243
96.472314980126
96.5113494278223
96.5103979375218
96.4320005039886
96.4266530322602
96.501085163352
96.5670910409513
96.614517736581
96.6841277860479
96.7104340177382
96.681229903396
96.7362306647442
96.8712972887988
96.9957260198458
97.0387687292585
96.9304860413607
96.8945787927884
97.0027059397641
97.0310794987423
97.0772936023461
97.1347054264772
97.2504144065777
97.3099808517116
97.1394657291777
97.1549070916174
97.3004509762193
97.3284841888845
97.344255010831
97.3122512914391
97.4013317426465
97.5853791744254
97.6208593071176
97.6053070182963
97.7076270045536
97.8497787957457
97.6750239018688
97.5767640755969
97.9271857373724
98.068102452072
98.070438317855
98.2982285456976
98.1744426390163
97.6845963720409
97.4765814985849
97.450469214353
97.3933423478632
97.3196298730484
97.20983220606
97.0996000319865
97.0699883655702
97.0205779817829
96.9438778093708
96.8908225719301
96.8927877292292
96.921790676114
96.8554918004847
96.7718954603411
96.8156461029721
96.9313486656053
96.9243920760477
96.8666436159111
96.9646071371506
97.100886965833
97.1007936017579
97.1158101286265
97.1490452134892
97.1940595764461
97.3034535976788
97.3803654970466
97.4836288580187
97.5876495508071
97.5624743183915
97.6259090831388
97.8236436481066
98.1380151673924
98.3387814824318
98.2472408968253
98.0039950843258
97.9816769680824
98.0492237730631
97.8952082748082
97.8894274788816
97.8816064997457
97.5437386934406
97.5463237732944
97.8152921621624
97.8103792897475
97.7357243656344
97.7164946042763
97.7615924905496
98.2193811477573
98.5101702200235
98.2837834169725
97.8709580216599
97.6089301733557
97.5677840915996
97.5307793686819
97.4365132962312
97.4013706643161
97.3617633943437
97.4024726967654
97.3801368916401
97.4171888085686
97.4773175987588
97.3677244576086
97.2595388757942
97.2696971694919
97.2626894696699
97.3084062428833
97.3210868207398
97.3095538174237
97.3135535146258
97.3565341428084
97.3348503882067
97.2961291693989
97.3079288594299
97.2789584329833
97.2580366837512
97.3326674504441
97.3257084325424
97.3140570860795
97.3107033435676
97.266912693485
97.2398308342539
97.3021343198436
97.3259493911513
97.2646642161352
97.2205324016469
97.1948125049806
97.2283244382375
97.2988847359099
97.2587843706805
97.2324003167547
97.1776049366351
97.1189912557023
97.1020577129499
97.0929848676081
97.072895398501
97.0581789714391
97.012501108976
96.9604727503581
96.859317590785
96.7690304782857
96.6439961892675
96.5179592810772
96.2332104220056
95.7625655115831
95.0474200838302
94.1453529483195
93.4550885079381
93.0609164629472
92.8720383930165
92.8377326834182
92.7799726050478
92.7492707487531
93.0265940800274
93.5101044024462
93.8636468593603
94.1875368908265
94.5733115535804
95.0109836379932
95.0966526786661
95.1048276772498
95.0325218109357
94.7337607883644
93.7459774793136
92.4254723711049
90.977818950294
88.2634649596272
84.7286614656813
82.1277017827799
79.1283590395625
75.8700553504012
73.12641903115
70.4579251737167
68.1892871408072
66.2085995699887
64.4387596259231
63.6105011867343
63.1031495029792
62.7249583012885
63.7532068826504
66.6378441171626
69.231226971708
73.2608478709214
77.4888786862698
80.7847413556483
83.8608378141105
85.6541796465254
87.2413096642376
88.6599392287346
89.8288414677255
90.7457061619147
91.6113186108999
92.2728774028246
92.7596456848784
93.0160809983068
93.3817098068966
93.7660738124298
94.0469656084413
94.237130864986
94.3009920858562
94.6449159780958
94.9116972385369
94.8980833042297
94.9486171294034
95.0384325703108
95.3059834175451
95.3270370868147
95.3350199078474
95.3658869716924
95.426258780585
95.444514395597
95.3413778147234
95.1337176328226
95.0210789717531
95.2979187379486
95.4190781109476
95.4236833759842
95.5059505609535
95.4589175615127
95.4651892166554
95.4373358700492
95.3658426725478
95.2580232000743
95.1101755972219
94.862299023845
94.5098467194313
94.0931305808332
93.7066561259867
93.6259731528124
93.7088371279432
93.8208598390413
93.7718067102768
93.542959838972
93.2020541560019
92.8951648270926
92.741726349789
92.7765951640652
92.9503089365697
93.2072415275325
93.3210178270946
93.4227809722913
93.5429862948036
93.6115073344474
93.6139037384023
93.4189981713396
92.9139231710764
92.0688793364978
91.1996366775526
90.5517931720974
90.1793708206437
90.1029417003226
90.2661520164912
90.8392872477966
91.8506066342351
92.5250368010327
92.7861595986896
92.8020404859665
92.7159963975443
92.6016971836633
92.434485658359
92.1257682000114
91.806891581414
91.5777845186909
91.3888456547529
91.2398675185819
91.120958144463
90.9843715052792
90.7326454666719
90.1171298546683
88.5874150210843
85.2071519128574
79.6484827139872
72.8504824982341
65.68427254963
58.9344725601014
54.3858783502147
55.9209913072348
64.7195694167864
74.8171195196102
80.6532855506049
83.0061255989156
83.80332675343
83.9583700267917
83.9054104260341
83.8682788777519
84.0335255073278
84.4868666148069
85.2036724012328
86.0927471657608
86.9937782327945
87.8798688576803
88.6959034817677
89.3201730976872
89.8866322212302
90.5816741911004
91.4356660490038
92.3062429120309
92.9419510756734
93.1790189439546
93.0444671852592
92.6311919040452
91.9848916333085
91.0794560366881
89.9148680917918
88.531273161321
87.1114592878901
86.0374532215224
85.6852307939192
86.0265802044035
86.6869234177574
87.2833729346245
87.5555478862364
87.3597682433171
86.6815062715804
85.6721461601904
84.558273465193
83.4784133912152
82.5422153880675
81.901366635597
81.6125417845945
81.5135860794902
81.3835509279791
81.0648665289077
80.4181275343067
79.3658691554868
77.9096504291312
76.1706097841011
74.3322364583047
72.5905287454144
71.0300960453423
69.6855361481897
68.5890368726883
67.7739808114463
67.2725993458012
67.1705647676898
67.5285538246106
68.2963208491899
69.1768979969727
69.8176064583853
70.0693374037468
70.0971507279858
70.1662897229412
70.3881606161905
70.7491914097924
71.3630236921211
72.0868582767859
72.4985682880663
72.3092928187643
71.7462349496175
71.3534961454456
71.5320755582801
72.3322164173852
73.6873966891743
75.4335088841827
77.3462898784694
79.22459621696
80.9549085845036
82.5944877391429
84.2772869086855
85.9421531096674
87.3171031245176
88.2144114633945
88.5827304320044
88.5366525216449
88.3826656580859
88.4079228543477
88.7119091185847
89.0924539424454
89.2881633927994
89.1412250409063
88.6373761330273
88.0320828297974
87.6034106107369
87.4223414401213
87.3855661873803
87.2567157703427
86.8956171009997
86.4428344294489
86.0565947685312
85.6168537346262
84.8797639936772
83.7236401053173
82.175176616331
80.3519609315996
78.3686950510329
76.2489074550596
73.9724896824716
71.5077536420801
68.9101743514326
66.2474747306955
63.630459156192
61.3123506401875
59.560533660687
58.5094984657697
58.4380477739544
59.428889297675
61.3783722369445
64.1213445622352
67.5578411776622
71.530799978145
75.5203671909507
79.0760276552531
81.8793842543249
83.6706422258692
84.8555350316483
85.8518921487794
86.5446144113305
86.9964519555656
87.4658967585847
88.2123445084716
89.0500163429898
89.0756494420297
88.1483444159959
86.7137447535693
84.7987430829363
82.6168037695859
80.9768285893646
80.3957163009165
80.7430238623458
81.8389026204772
83.0515916597445
83.4571603984335
83.2359762062778
82.935033806758
82.6771877768997
82.5360850433537
82.3011498186295
81.7853835298442
80.9117751420261
79.7721516940957
78.8719945020189
78.2414420719801
77.8608482155828
77.5663529332377
77.0117243150801
76.7022856394402
76.924469802557
77.2049727424808
77.1792177155436
77.4711162795986
78.5143940227988
79.3799360734637
79.1970022183727
77.9687980918614
77.3802289661288
