900
3999.43349933624
648.556783676147
1
128
8
99.2261740975592
99.1533144179906
99.1547214380644
99.2616825949371
99.2356624486104
99.2018919116016
99.2376133807864
99.3041889896695
99.3222042058359
99.2883524365715
99.2248172259121
99.1991464628834
99.2394369961125
99.2228152569589
99.1631842724624
99.1736744127926
99.2224819736558
99.2598213354562
99.2554995503101
99.2392594806681
99.2340153504474
99.2380447631054
99.260131645321
99.2250274968533
99.2034402305813
99.2473763615835
99.3299373144969
99.3620783765122
99.3512307360496
99.302901027905
99.248050538953
99.2717905717471
99.2757516220281
99.216627473062
99.1991055770526
99.2625571512248
99.272594804847
99.3124344676199
99.3787275959237
99.3872724929459
99.3197438715845
99.2413558951097
99.2332732134102
99.2821709483522
99.2953135525261
99.3615377424079
99.3409194131214
99.2371883464803
99.2887143684604
99.3046768305273
99.2829352806145
99.3271645919019
99.302215466687
99.2225345981601
99.2830193797182
99.3320089429422
99.2856694123465
99.2040044199826
99.2005761564195
99.2352262459444
99.1799326945181
99.1373262617554
99.1868381134519
99.2311070380013
99.2792942513855
99.2539300115224
99.1553334002033
99.2120424633882
99.2705398773472
99.2712703443765
99.3332566900525
99.3826870938457
99.2776778426993
99.1594000746713
99.142130116909
99.0957977037983
98.990279124367
98.8578226633407
98.6922294600769
98.4115504561516
98.1194958085806
97.9339548022038
97.762022031208
97.7999584872263
97.9832719121636
97.9567445145457
97.8716369515405
97.9080575756772
97.8445865562572
97.5928770742834
97.4113710271561
97.2643747084598
97.0135045394715
96.7496558558679
96.6472733640512
96.665746631036
96.5789074687287
96.3854866738533
96.1674693455241
95.9260308048439
95.7792617666455
95.6347339699737
95.5072482841316
95.5815980245209
95.5987391062554
95.5341885413225
95.3716192766889
95.0996265809869
94.987250881963
94.9623207371452
94.8057261671002
94.678154693374
94.6536729925817
94.5391447733133
94.3451617719687
94.1203743377693
93.9311072661689
93.922319033443
93.9033118665572
93.7529924346689
93.5622760269244
93.4287731043138
93.3607802682155
93.3048543542356
93.2058654897414
93.0590182521358
92.8217636018924
92.6365547835681
92.5961581661852
92.4949889409027
92.3717288766634
92.3108391981541
92.2441203028986
92.0798384475413
91.9151646867927
91.8595195340475
91.7496213702791
91.5637708415638
91.3918421052502
91.3274478860739
91.3462684134133
91.2309538581678
90.9817007232517
90.8912973047932
90.8695020756722
90.7941754607581
90.707409392704
90.5778416614703
90.4244431619761
90.4030495179295
90.4839116851983
90.3555795804722
90.1458046182784
90.1374547364954
90.111378382497
90.0622690468717
90.1143052621463
90.0648048042757
89.8943927252302
89.8441138759317
89.9012228339301
89.9250985553784
89.8608345711384
89.8208919716347
89.8650063211055
89.941642056907
90.006348826046
90.034832130062
90.0370252151526
90.0098502666769
89.9827479807321
90.0380987656425
90.1335019948981
90.2201354515431
90.2842978364115
90.3719407572233
90.3918266843922
90.3982453314372
90.4554849346381
90.544951834766
90.6171641008066
90.6714175624674
90.7348889838266
90.8131510777347
90.8149859660819
90.8537713911969
91.0118270647091
91.042470323153
90.9910223165407
91.0787010893061
91.2198288597606
91.274020183159
91.3011442829214
91.3504343342457
91.4042110322251
91.5087671291325
91.568071609815
91.5726228520174
91.6311302240316
91.6823585477145
91.7346327703768
91.8220635418502
91.9136792765023
92.0413681506769
92.1329880177305
92.1847414809742
92.2414302905104
92.3235084762389
92.4145891302348
92.5072602891703
92.6397137264318
92.7215140970021
92.7574569865742
92.8813649266168
93.0303140127228
93.1433280915987
93.2027184030428
93.2587286547565
93.3793451822693
93.501808292661
93.5915114326619
93.7336424139637
93.8742467492919
93.9642671495727
94.0717057230248
94.1393617548172
94.2342894986672
94.321945927511
94.4246313644563
94.5602310529728
94.6442590916865
94.6709079138755
94.7800045554577
94.923886772236
94.9860081626454
95.0867669873692
95.2203518413937
95.2440160685353
95.2651508502006
95.3679280844825
95.4846332768733
95.5253327698129
95.5787281049965
95.6787550316921
95.7621654851987
95.7919368714876
95.8256519531299
95.8988353400298
95.9777090224422
96.0609080526078
96.1047129672651
96.1642699688046
96.2796247027694
96.3306864872707
96.361869100845
96.4031368332993
96.4479156490688
96.506440496729
96.5769157456026
96.6292936976875
96.5944479424673
96.5730217876464
96.6266857339044
96.6968080946337
96.7370314039515
96.7541792743068
96.7574561662114
96.7378506318125
96.7386334339723
96.8136684628916
96.8426440376935
96.8014910208204
96.7696219881247
96.7074186864589
96.6401941485158
96.636465284455
96.61278330622
96.5906919875271
96.5839259247803
96.5579128512926
96.5335761304524
96.5229849567251
96.5068798032965
96.4181262829418
96.3314990552512
96.2936176331602
96.224774643071
96.1586041900077
96.1170396974405
96.1287629935417
96.1520257616018
96.2137157790469
96.2799854683322
96.2830045018281
96.3214529818978
96.4213966152327
96.5357109130482
96.6201530095019
96.6608620064128
96.7000367845046
96.7661297783514
96.8099975885622
96.8681944174485
96.927236455242
97.0067737091903
97.08656832146
97.1210887119924
97.1464749236388
97.1959710877773
97.3133742592516
97.4515862308945
97.540474878359
97.5885168309654
97.6463760335568
97.7143323957554
97.7231960843766
97.735022881915
97.7603932828961
97.8079335006985
97.8322069483523
97.8183339052653
97.8433186052912
97.9153418017934
97.9454812398831
97.9481320434785
97.9681715488925
97.9712448261518
97.964078261479
97.9831167519636
98.0403897851909
98.0847274943685
98.0508956278845
98.0341969651635
98.0817947157393
98.0769269410822
98.0485370616617
98.0755398283002
98.0906609132633
98.0973542332672
98.1337567067475
98.1374683885002
98.1142174639011
98.1287149839097
98.1838688704346
98.1960823499321
98.1820308695086
98.184179781432
98.2201331082125
98.2488109158698
98.2320574138241
98.213790633744
98.2165987077586
98.2452337114228
98.233188713521
98.214757772462
98.2607658505149
98.2970301662439
98.2894713265982
98.2951035311933
98.2759038633833
98.2683249894718
98.272367106366
98.2665371554835
98.271186084453
98.2653275043065
98.2698739608472
98.3065262183541
98.3412822306985
98.3527211993783
98.3670806753173
98.3885164024474
98.3996973873028
98.3883313971576
98.3886196421462
98.435389583449
98.4801758379993
98.525445549862
98.5045248244844
98.4793066340482
98.4734558125758
98.473144834526
98.483993501209
98.4969564285376
98.5182700698299
98.4934896987532
98.4842402784326
98.4880417199548
98.4252882871771
98.4340443675015
98.4904417205384
98.4825638182892
98.5014113478202
98.5371350234414
98.5043723853041
98.4874038811778
98.5596802550532
98.6107847653414
98.6408893316503
98.6710238615038
98.587620326395
98.5426666166043
98.5781373635628
98.5956908734371
98.5738933606582
98.5655165199065
98.5957215397416
98.6601382375671
98.6047278638093
98.5657943161927
98.5942785504212
98.6051581853456
98.6025134332296
98.5891438363312
98.575875606319
98.5995172680667
98.599107441275
98.5492058089595
98.590463660239
98.7032109702819
98.6770776914392
98.5959273498014
98.6502901580663
98.7119582485166
98.7089560521559
98.66728332887
98.6286027601255
98.6416360771554
98.6736179667582
98.703141512669
98.681632099194
98.6201500359155
98.5918575500847
98.6588044220505
98.7216201162666
98.659630843388
98.5738044160544
98.5534850742614
98.5630914790176
98.5997818428589
98.5766923567965
98.476255372896
98.4730681464019
98.5275473786334
98.5383544380481
98.5124643918472
98.4846548799484
98.505325247084
98.5309549712541
98.5062066054399
98.4233025861846
98.3571950167073
98.401260106123
98.4528397306071
98.5260236089381
98.5761819607824
98.5287668824522
98.4680736658895
98.4831268618552
98.5265683869477
98.5156883005685
98.4981640880124
98.5571135490015
98.6447078682835
98.6278378213446
98.6318670384963
98.70389612352
98.7366719347907
98.7391604211052
98.7392220781004
98.79204920038
98.7328814541704
98.6103632321167
98.6760939071485
98.7552269133573
98.7636440482809
98.6851437351784
98.6595261562978
98.7743914770594
98.801140468107
98.6777990070431
98.7484587724447
98.8637687901882
98.8929582845776
98.9015155708885
98.7487029400687
98.6010233225299
98.7297719247503
98.7843688471304
98.6839042966532
98.8575601035978
99.1519287517213
99.1995784277724
98.9126059657028
98.7243722937387
98.9919374023499
99.2410884125308
99.1848767103135
99.0835345836361
99.0881762463391
98.9886053095585
98.8382247879526
98.6852721086654
98.6033556007563
98.6450584734471
98.6539184282497
98.5316036182217
98.3899216524856
98.4497880210971
98.5357734010176
98.4091488222476
98.4212527296388
98.7005839375876
98.6658254007618
98.4385127039524
98.3921091002092
98.4485894681046
98.5728119664785
98.658088523439
98.6675065597796
98.6866867247778
98.7176311489937
98.7791486559516
98.8289149531562
98.7296307312665
98.6236519095865
98.7236767922363
98.9589934739226
99.1657660141618
99.0548542561913
99.0298380192958
99.269377007698
99.2105158800318
98.9645000207566
98.8375572272545
98.8637914538295
99.0073386105786
98.9648084321804
98.7197142293792
98.6561896234259
98.8839508309631
98.9883209437035
98.9425904648694
98.9086028680921
99.0639351114424
99.132014029248
99.042615737773
99.0789978281186
99.1038557242413
99.0260189241906
98.8771072579947
98.6645572008811
98.6872971418248
98.7343591977054
98.6731296122093
98.718053150382
98.7428535703906
98.6910144646844
98.6970586855174
98.7035499001461
98.6484681744973
98.610971822916
98.6548933884024
98.7439082791233
98.6933049262944
98.6090217666112
98.6334333494334
98.6794107216132
98.6757544430556
98.641955361801
98.6604578010846
98.6492625485242
98.5890778980081
98.6182057998686
98.6494062700696
98.6080927270426
98.5904282016795
98.6434171243433
98.6379412477541
98.5680747350489
98.5683483491831
98.5430122650866
98.5281277322683
98.5575682223136
98.5753711854507
98.5511858220864
98.5097330433221
98.4550931377482
98.4379369577441
98.4239848965325
98.4105882230051
98.4314374890617
98.4076921524779
98.3228324130268
98.2799539188271
98.2301661374938
98.1768238307943
98.0992258756269
97.9798427519596
97.7834974298327
97.5652464300746
97.2549379331805
96.883855978933
96.5993772306534
96.3488912983507
96.1657283653576
96.1104836229429
96.0731859281142
95.9889103451709
96.0467956179199
96.2203531526012
96.3052920086067
96.3445807179043
96.3740306586828
96.5845905789542
96.6262971674648
96.5639631171835
96.4624720737802
96.3049508091173
96.0630862714226
95.6701120269979
95.0749876453362
94.1153037076455
93.2850667829736
92.5150745305298
91.40377382423
90.2755086272925
89.4020499923726
88.4265460460199
87.6238369302761
86.4828651127705
85.3498674430835
84.90456086542
84.4750761365775
84.1106351496978
83.5466936085722
83.7837321682808
84.2365496279801
84.9284859048836
85.8835647018657
86.8684736817763
88.107654034157
88.8994587611545
89.5872268853087
90.3042147193811
90.8517698997207
91.2207404152388
91.6010942299637
91.9184900360432
92.2046844964333
92.362332795988
92.6330640645729
93.0013493253428
93.203871180127
93.3667222745376
93.2699391127369
93.713249902117
94.2796038227241
94.331771509258
94.3441079310579
94.3146745917472
94.887585139559
95.2406490246354
95.3751954781626
95.4647531057463
95.5164832073311
95.7219831891921
95.9518733289557
95.9392815067235
95.7747780468715
96.1538064722324
96.3850343489686
96.3585339200965
96.4215058263961
96.4150499233205
96.501059875285
96.4789578296658
96.3536660197566
96.1969238495765
96.1130523904453
96.0471315463023
95.8329195195671
95.5688711827246
95.2835776520267
95.3469601531191
95.3604016965821
95.3368103550228
95.2487577524829
95.0189235365436
94.8196938607376
94.6976653070852
94.5596025948497
94.4255507155429
94.3028900453489
94.3134432589842
94.2892260790815
94.2355500988343
94.2044702438363
94.2182770681958
94.2287444531524
94.222901669659
94.0203360000559
93.6539007577315
93.3513982111803
93.0922202258803
92.8975087154583
92.87110786976
92.9178778630467
93.051489564179
93.400742468533
93.6592988514165
93.7732991518198
93.8381344389618
93.8779690386743
93.8935414371142
93.9667083936921
94.0368738217457
93.9978223544889
93.9130988238075
93.7911660171837
93.6796427049067
93.7071840743069
93.8527910687494
93.974375482881
93.9866574123559
93.6900182252859
92.7934895469818
91.2457424932154
89.2939756266876
87.1798926421282
85.1148493984829
83.458578490737
83.2040887711149
84.864238463216
87.2121530963959
88.8482988769591
89.6657559722028
90.0002311621776
90.0915899686171
90.0442074021398
89.9692650352249
89.9479630489634
90.0304947144523
90.2041517104335
90.4643571114166
90.8188841697851
91.2500281881541
91.6193594245658
91.8711754479039
92.1164778733154
92.4369975592446
92.8312046511674
93.2577458597405
93.64276234435
93.9038923784849
93.9715571814357
93.8844650392114
93.6738419750103
93.3448592457809
92.9025657506238
92.3794839206393
91.8371633621803
91.4358193287814
91.3084529720493
91.410764701851
91.5841760036203
91.7349585371753
91.7844107754494
91.6842852367551
91.3889637497147
90.9514628083383
90.4357486319652
89.8626651616491
89.2843508335389
88.7945271257418
88.4704148321203
88.300246937315
88.1680055464952
87.9762597285414
87.699744293688
87.331592614194
86.8781630376159
86.3527801229323
85.7743585352622
85.2074472419166
84.6383991149451
84.0810132902437
83.5639915333353
83.0428762965696
82.4684084120172
81.9206492007194
81.4374576658079
81.0313376276909
80.659242245077
80.2931264858511
79.8910055971533
79.4471684798916
79.0658909729362
78.9083168549297
78.9620248862169
79.1481828597835
79.3021040067059
79.2832876954235
79.0343045026102
78.6798579230656
78.4205880333081
78.3977399760068
78.5969695292833
78.9903388837349
79.5525221926546
80.2388715196715
81.0197897269534
81.8603135935621
82.7258262822936
83.654288184782
84.6424784626076
85.6093422877043
86.4150883013899
86.9848278588233
87.339242017884
87.5143047116426
87.6228397047147
87.8401160510978
88.135689059439
88.3365822740329
88.380805528773
88.2762126202359
88.0248432676082
87.7725238001212
87.6374508420152
87.6871103646805
87.8746788655992
88.0411187383663
88.1286415276877
88.1987834885417
88.3002429114035
88.2934902742212
88.0460401118775
87.6290649404457
87.1286028840499
86.6466156738964
86.1694669053776
85.6179570852719
85.0262085441896
84.3741703953227
83.6300912266155
82.95288875408
82.3724757958353
81.7528395951964
81.2004844712352
80.9602676755607
80.9936894022639
81.2142892631435
81.6095964693428
82.2224182475219
83.0687597858844
83.9746317126355
84.8103211129134
85.5373974849867
86.0639441291513
86.3735133832136
86.5883133991493
86.9063168489279
87.2424311126666
87.4995573975709
88.0681576909292
89.1384321523981
89.4780417252347
88.7747747330597
87.8608631884956
86.9329830965392
86.0614810039385
85.43925972484
85.1657919145792
85.1660460366335
85.432566415534
85.8702273445621
86.0831747126487
85.9763188496415
85.6615402913822
85.3077756832672
85.4569603102011
85.728127290692
85.5488928582559
85.1146955838781
84.5084579671537
84.0600937575657
83.53105757209
82.9351772046052
82.8451512181119
82.957849273026
83.054047813235
82.7469502809724
82.047102162409
82.0890215165956
83.0701167449883
83.1757565450857
82.7771941643236
82.4542982272873
82.0712200485467
81.7736308979054
