900
3999.43349933624
648.556783676147
1
128
8
95.4402738387458
95.4507243394788
95.4945644483329
95.4707858173185
95.4500360443391
95.4338334202179
95.3902100314262
95.3869350752468
95.4879768700582
95.4941238412184
95.4805864280971
95.4800915562225
95.4396938606685
95.4626925144661
95.5028804630244
95.5412482652004
95.5085993756828
95.412890482218
95.4738493322986
95.5832221436313
95.6117052473837
95.5784495556297
95.563457461362
95.55045436265
95.4958095601475
95.5026165437101
95.6561912084475
95.7054390353188
95.6211447053672
95.6024078681269
95.6495777888669
95.6608980737701
95.6199290109943
95.5758860017147
95.635402626293
95.7508638322201
95.7824026682787
95.7376621914751
95.7285559869897
95.8524303026438
95.8209391860394
95.6765218624518
95.6702095069659
95.7931636948862
95.8131345289535
95.7554929866175
95.7234464626016
95.7567928614665
95.8323747534394
95.8219668142063
95.726568462491
95.6622251864407
95.7037505293489
95.7636340564542
95.7789229146414
95.6854125070004
95.6484994079506
95.6883520643579
95.713674319413
95.7389564346374
95.7243369181101
95.7221619539445
95.7634311418161
95.7340681751885
95.7490162564418
95.7946139855244
95.8861402334266
96.1304397119115
96.1916604992647
95.9956540604044
95.8600818143391
95.8054672658293
95.736668127628
95.6610624659102
95.5864433851811
95.4818919344406
95.3136885824283
94.9849778856822
94.5039106538744
93.881237510676
92.9839226655691
92.2806146978615
92.0862209157655
92.3912384909251
92.7674623447019
92.8659671264506
92.9218098356316
92.9455639620135
92.7730426186874
92.4893824667044
92.1138908605534
91.7106190357218
91.4178221573345
91.2305847858138
91.1097110398036
90.9905782557658
90.8275229586762
90.652904228864
90.4712049250432
90.2846540304319
90.0400835271687
89.6257302381754
89.2932545555035
89.3853038935648
89.555876977993
89.5041796184683
89.3223034840759
89.1323152000288
88.9772296944486
88.787450697626
88.6345408533704
88.543209956057
88.304514267895
88.0783651348359
87.9073785838441
87.7055156787868
87.6321332467781
87.5012000446886
87.2832998212083
87.1493490126975
86.9522406621972
86.6214646284818
86.3830981125069
86.2688872848791
86.1264832197115
85.8899256278068
85.6074669547779
85.4376699238555
85.2134861999652
84.9926308435954
84.8035990219119
84.6086424234947
84.4887584069057
84.3469181670325
84.1276693625687
83.9063957028237
83.7891289566399
83.6641978683305
83.4842339480714
83.310694629089
83.0146784748734
82.770613299035
82.7426913633806
82.649180590211
82.403545430416
82.1767578464132
82.0070600470914
81.9197496078816
81.8453232083543
81.7610216772417
81.6716441107207
81.5711715947593
81.4597152887548
81.4116625371098
81.3648706552525
81.2872769626677
81.2518512936591
81.2946524237573
81.3359246567461
81.3327878158709
81.33821308205
81.3348323224584
81.3289969964164
81.3862341870801
81.4449421395717
81.4795292737382
81.5595394250398
81.7224073444767
81.8198166979887
81.8573973758574
81.9472273268626
82.1018791421142
82.2461783760323
82.357566358161
82.5091759590592
82.6159918429403
82.7260039792167
82.9787026496092
83.2156459150097
83.3302623822985
83.4085293265617
83.5864934392539
83.7435185918321
83.8578213339291
83.925980363424
84.016712610178
84.2793062057817
84.4760548347181
84.4747547013966
84.6426265034786
84.8934081126065
84.9557735002849
84.9494225511151
84.9884310018522
85.0686212454968
85.3166778057663
85.571696687781
85.6695146255761
85.6774405573231
85.7754188130361
85.9151332734871
86.0423216619369
86.1957056777549
86.2878026415051
86.4030013374201
86.5890506967645
86.7376917445315
86.9011715732144
87.0834712574355
87.24125141394
87.3557116244841
87.4850123388224
87.6281569085652
87.8384180912137
88.0357809824974
88.1946168945605
88.3543333328261
88.5145741888614
88.6729903090517
88.9007018927639
89.0982698800848
89.2558095295663
89.4132530670699
89.5738549924562
89.6958471200708
89.822804663938
90.021592514209
90.209355730109
90.3176046560154
90.4482476460548
90.6067996118382
90.7037342346196
90.8006319802859
90.9574772299725
91.0989982395289
91.220091876113
91.3161961048701
91.4318458998054
91.5514078184981
91.6755438502257
91.7660901292178
91.8440213069057
91.9318473977869
92.0728786446067
92.189305339036
92.2345478077367
92.3385322430322
92.4128148331677
92.4482479501323
92.541691999871
92.6278513778981
92.7024520219483
92.7997700187397
92.8640990696527
92.8972630764726
92.928454821708
92.9817876261345
93.0305789512302
93.0453505152779
93.1086298218096
93.1789778476453
93.220105355794
93.2387648757196
93.247636928397
93.2642386168309
93.286196493398
93.2929430622788
93.3114378233579
93.311169455625
93.2527013127955
93.1913118043182
93.1467375933596
93.0972112188706
93.0179010021782
92.9441590239989
92.8773668509208
92.8259402585365
92.7927130892487
92.747942050086
92.7616169541928
92.8056078642919
92.8208891204512
92.8019396875906
92.7052990635429
92.6117873977153
92.5837323789131
92.5499831958091
92.4496295784153
92.3094064863235
92.2744442556517
92.2817147638351
92.2492152005292
92.2780928262614
92.3557267148521
92.4220214900727
92.5300273251495
92.6358426155336
92.7451788851417
92.8307211877713
92.9015698474265
93.0082700755261
93.1202827737779
93.2511260351168
93.4218053744933
93.5892617502573
93.7382594462978
93.86948300207
93.9560194627434
94.0327907766385
94.154914578694
94.266202786985
94.3891077026941
94.4697973998753
94.4776696891575
94.501264840543
94.5820575151786
94.6601796720076
94.6800775776453
94.7141112517346
94.7723981398081
94.7701426128977
94.769113214625
94.8137798489879
94.8588193168915
94.881112279846
94.9282474896899
94.9553052728906
94.9571045049436
94.9695042091753
95.0270769350101
95.0528198491272
95.0520119383626
95.0376839482795
95.0260415270802
95.0417261108885
95.0811153551104
95.1149412104079
95.1095549048512
95.1218689691898
95.1367789391835
95.1512380066217
95.1495741587067
95.1409695941585
95.1608908302507
95.1784846513895
95.2027954574188
95.204871821144
95.2152827724744
95.2567318134778
95.2904418420288
95.3018492969334
95.3194187706045
95.3177594668788
95.3247330887629
95.3366963329641
95.3416767542757
95.3563518893551
95.3671160949463
95.3760639714306
95.3785781885394
95.3666932357329
95.367076796445
95.3757579641798
95.3890898733818
95.4239858102704
95.4949442591715
95.5404294933982
95.5102776867112
95.52901687247
95.6038518759621
95.6134652896316
95.6340442149838
95.6657229911012
95.6986071729685
95.7365564722785
95.7684806858713
95.7923956400072
95.862876794948
95.9457631697196
95.9127861893288
95.899937231326
95.9498421927554
95.9563427080718
95.9221595524274
95.9541503471896
95.9573547061985
95.9269134787747
95.9008446018954
95.840020450474
95.8141039435871
95.8311433284369
95.8482345147875
95.8670192864769
95.8985531150494
95.9614725776907
96.0011675832244
96.0338449829509
96.0757516282481
96.035883241259
96.0169854694581
96.0624808666294
96.085193577963
96.0570763226007
96.0798154570419
96.1342092290286
96.1278646149258
96.1305244184538
96.1571643818986
96.1933550790297
96.1806258986502
96.1287601430247
96.1099610575706
96.1323819933227
96.1355296234961
96.1265862358313
96.2138492321073
96.2444615577734
96.1835724470979
96.1739831911185
96.2073912660823
96.2302424627299
96.2400554336173
96.2403433026872
96.2465179840238
96.2194920357821
96.201477274576
96.2183950072235
96.18821274615
96.19149073201
96.2324883300932
96.2075654217731
96.1395338886462
96.1588315158608
96.2247707048133
96.207085499922
96.1660138861815
96.1851830835025
96.2432009481795
96.2671491461192
96.2374433232964
96.2385456893299
96.2066640881909
96.1387847210997
96.1501054192063
96.1936670810486
96.1657851715664
96.1382698760151
96.1726871990148
96.1594802156178
96.0673126044207
95.9989548373025
96.0120732335998
96.1064654753274
96.2440418553287
96.2827337055365
96.2262106022413
96.2272068999016
96.2875340841946
96.2781407157933
96.2712982575538
96.3520180127435
96.418266794399
96.5009424967047
96.6403242157149
96.6907860321707
96.6866976366334
96.7429023833451
96.8388837026315
96.8362671327988
96.7596102000121
96.873082749176
96.9904548356078
97.0125208820603
97.08693545348
97.0702206696306
96.9947357586545
97.0912134747535
97.2543799077986
97.2362096224506
97.2637658907019
97.4177204196609
97.3769152560331
97.3552588856869
97.5423048095502
97.6878094458463
97.6741161958405
97.7249471346113
97.852333288197
97.9523192782219
97.9135275309987
97.7758036101223
97.7608449201618
98.0318770639215
98.500273109638
98.6236711948025
98.0843793821442
97.6193451963091
97.4319762028591
97.2313331563214
97.2500537748419
97.1722585006885
96.9246571907292
96.834274264798
96.6534372070591
96.521307640162
96.6515017024797
96.6707086121276
96.5363867549086
96.6086871343902
96.6830375261367
96.7066802471172
96.7231716047472
96.6160118936138
96.5929594235888
96.6769463106472
96.7583203865508
96.8284059579448
96.9629491879718
97.0595173628013
96.9591652151452
96.9378987541668
97.1348387277655
97.2351395383477
97.3797907617049
97.5848757052395
97.5711267692754
97.6356690691574
97.7505095817432
97.8359452597877
98.0154240887341
98.1678341857521
98.2763851088447
98.077725341154
97.7395428257985
97.5294272581946
97.5031612263196
97.5149161034174
97.6445927715717
97.5730813454896
97.4458029694373
97.5127612950272
97.6125489122257
97.714400440449
97.9033114131132
97.8383741770799
97.5509517864872
97.4114020639127
97.3897700709407
97.2883071650798
97.2671282193192
97.3108416386549
97.3856473895972
97.2322084717215
96.9937219557149
96.9680030601814
97.1055296591201
97.0548268912078
97.0035832028215
96.9652839261896
96.9367443983314
96.9953914951722
96.9657649083179
96.8803849161226
96.8786047577568
96.9198986028124
97.0390821257568
97.0063448463001
96.9529516568134
96.9196233726032
96.90952100194
96.8963123042422
96.9103755668689
96.9332304465122
96.9062421010412
96.8815262817575
96.9192858691903
96.8705224858688
96.8404577921983
96.8742105788507
96.8671592746001
96.8318427550488
96.8386366148818
96.8275410844126
96.8045405633558
96.7307693263693
96.7336880472877
96.7130020038056
96.6975529439927
96.6932760630265
96.6499193705904
96.5789989272719
96.5199887089295
96.4428780423546
96.4121358442004
96.3011324207115
96.1807150651883
96.0172449556239
95.817424145083
95.3966199730413
94.8389056754925
94.0307249156402
92.9745310998108
92.1047092646236
91.6192619975535
91.3850930774995
91.2764221069905
91.1863488581278
91.1912071162649
91.5361197620521
92.0896768901051
92.532936756085
92.9474177895476
93.3799193256017
93.8061724667412
93.8554083385487
93.8702199725366
93.7622200200762
93.3552408035363
92.1623787784416
90.5825609129105
88.8707221097546
85.7973952451247
81.8143261754349
78.9095115538851
75.5991285890006
71.973047531749
68.851036973798
65.8264101885176
63.200973231138
60.8924071875045
58.7093014564357
57.5489301495371
56.6364942887879
55.803243009914
56.3079398869088
58.8349627992322
61.2754872852885
65.5345249892511
70.3767007620744
74.5105486916577
78.5548024669145
80.8833700711199
82.9991398534841
84.9158561229363
86.4639149049026
87.6975817616391
88.8291022434638
89.6682757446661
90.3999490487215
90.8579367668584
91.4071052010679
91.9107551382767
92.3189760327144
92.6110614533364
92.6653138940862
93.1025355146713
93.5469038535614
93.5871439456507
93.6235062517128
93.7177539943358
94.1321431229773
94.1720685697545
94.2311258565946
94.3232913909035
94.4058884009522
94.4653696842023
94.3768212785638
94.0830592455456
93.900191897747
94.3133234989888
94.501850701738
94.5135562148614
94.5937796241645
94.5133705302011
94.5401828695039
94.4983797311175
94.3676526865183
94.2099219261863
94.0683723170182
93.7896947890768
93.3806209565157
92.8646082851548
92.3768911022863
92.2569855614168
92.3115452391238
92.4563556705069
92.4092706367701
92.1338921669363
91.7128466645954
91.2822084120586
91.0513280282959
91.070892715749
91.2599319102249
91.5417838571298
91.6606135964308
91.7620017320209
91.8871247357164
91.9444378362808
91.9318774857641
91.6668143232964
91.0325643308282
90.0193448535873
88.9751715171464
88.1935664393592
87.7517798232466
87.6439817683588
87.8262359357427
88.4950426829498
89.7057995335976
90.5200293110281
90.8409760022372
90.8757671759232
90.8241703471688
90.7574697187102
90.5960281815371
90.287689293814
89.9198145109325
89.6325339534702
89.4563172404812
89.3370815045196
89.2191974522877
89.1101557186703
88.8687034892255
88.2120338582668
86.5528251090648
82.8809456796216
76.9114222572303
69.6781361781844
62.0671874292988
54.7272592976552
49.1234363142989
49.1626482215949
57.2278783842619
68.2299156803235
75.4117956105757
78.5266694017705
79.6224692881379
79.8768873861167
79.7873446227747
79.7057501581966
79.8555669046905
80.3387737273628
81.1592493696959
82.2258494344163
83.3428669078195
84.4660834053149
85.4964237002089
86.2511879977526
86.9250872145441
87.761239219708
88.8097724785907
89.8791354589612
90.6625780176819
90.9624674856678
90.7985692821861
90.282132608714
89.4981301104895
88.4167025904855
87.0045119737481
85.3421562776113
83.6353954887017
82.3142763702814
81.8517162620025
82.221569722597
82.9272937089352
83.5197493007202
83.7317246935375
83.4319229046608
82.5772103057979
81.2880839168658
79.8277758804666
78.3410385549959
76.8985242509418
75.6852212880344
74.940306401499
74.6461374101498
74.4056067031144
73.935355457411
73.1654198600964
72.0072096976756
70.4210499062336
68.5649434568567
66.6145271845481
64.7232690556804
62.978676269879
61.3913567772079
59.9969616935328
58.8400542343085
57.8985255026652
57.2611356265113
57.0387942672955
57.2293391878194
57.5402698753157
57.6088046308008
57.2100338262833
56.5003572611259
55.8540429070844
55.6482591383239
56.0331700957856
56.8770621114793
57.7200097622279
57.9739608844201
57.3148487473636
56.242179610157
55.5977395574666
55.8355598026961
56.964055213965
58.8228029321689
61.1657764820844
63.7714525871062
66.3669701563693
68.8263015708743
71.1944968238968
73.6343030044678
76.0463194298784
78.066784918245
79.4610401494242
80.1858258892954
80.2837792230182
80.0998730507755
80.0716618390173
80.3332510787826
80.7579913506448
81.0714865294332
80.9292370552573
80.2645765334405
79.306134626173
78.3802932232135
77.8114542936784
77.8747474250312
78.3067987541006
78.5699316406353
78.591872153049
78.5418027992456
78.3890449569572
77.8950840258042
76.8271889911159
75.2735936925345
73.4385957596484
71.4069541970458
69.2450196593568
66.9674047499836
64.4697037453227
61.7382282414005
58.9144148598012
56.1512509148298
53.5860574741465
51.5025476948841
50.0988042793672
49.5539714625941
50.0266647123288
51.5535726576214
54.048719908325
57.5075800866429
61.7998613249101
66.4288239981648
70.572743088495
73.6682487370129
75.7249131367055
77.1299505523597
78.23924547999
79.1202288725914
79.8419549604889
80.6637579973273
81.7044295686423
82.8116172799414
83.1288757297204
82.1647974261745
80.4214280040316
77.9634248026191
75.1089979560106
72.999081505422
72.1924094342883
72.5166518021836
73.8702183320838
75.506186640398
76.2218895978979
75.9546401734851
75.6060358109365
75.4469289417028
75.3136548363787
75.1936616615743
74.655850062563
73.4951963895038
72.032445838534
70.6524362533261
69.512045528631
68.5012526246305
67.9487013825161
67.8926317315337
67.6939634765076
67.3292272910247
67.3482406249336
67.6122743840225
68.5060566988817
69.6944612628923
69.9492773084174
69.6280239116589
69.5015833702057
68.7479945422392
