900
3999.43349933624
648.556783676147
1
128
8
96.8456593946411
96.822581115976
96.8899416527688
96.9498600383669
96.9274671493995
96.8818353538928
96.8817459819008
96.9268266969177
96.9330352792311
96.8793622059854
96.9137602531667
96.9810756310943
96.9156593457139
96.8788890935178
96.9067424346046
96.9289418080748
96.9712339159758
96.9891785021935
96.9576096910709
96.8990271946296
96.8888990273589
96.9281432722174
96.9750436301653
96.9946335687549
96.9531071565029
96.886427457293
96.9861237637397
97.0734242402999
97.0268581645013
97.021228422396
97.0088835081884
96.9845464092529
97.015391676739
97.0491690674204
97.0905540041377
97.0565852192667
97.0293812721307
97.0437043692811
97.038752206156
97.1138472806376
97.1102707345515
97.0379870404561
97.0280730417649
97.0215118727626
97.0474932147727
97.1019046196215
97.1110402919718
97.0895031379101
97.0647135958097
97.080883042501
97.0831890431525
97.0843142334264
97.0661530672688
97.0142768828226
97.0286599155335
97.0566921525142
97.0601074763543
97.075399387084
97.0858173479016
97.0868346529785
97.0876304994573
97.0636364869896
97.0912885889542
97.0641479785223
97.0438819237542
97.1085844438562
97.149237810169
97.1955885578009
97.2340078483438
97.1929871723904
97.1519200753615
97.1441602407365
97.1178913292774
97.0864068840115
97.0741085823157
96.9528533589328
96.8046001606393
96.7065060162033
96.5073780739902
96.1793522003773
95.7203768249431
95.302376916865
95.1318921132016
95.2892964854487
95.538499720854
95.6265939751309
95.6245608271153
95.6662490511962
95.6421443456552
95.5076162221465
95.3257184950562
95.1394364728591
94.9984222673672
94.8160560140489
94.7440216770982
94.8470018996999
94.754461206961
94.5884385055108
94.4759178009062
94.4429146583254
94.3372196183306
93.9851755870787
93.7564041999985
93.88134530222
94.0666674831633
94.1805937288713
94.0888910663451
93.867371076249
93.7912320267543
93.8410469753322
93.7796627645607
93.7188496522542
93.6401290930049
93.5279217701962
93.4688136427499
93.3736026678426
93.3509847061859
93.4068567586935
93.3350089497517
93.1410420502576
93.0233178376593
93.0131663144209
92.9849407780733
92.887272867993
92.7812964821715
92.6983475606891
92.5826638359549
92.4887935473262
92.4223805331011
92.4073364996612
92.3157736124413
92.228299973175
92.2434348673198
92.1175606424955
91.986315897791
91.9494321715647
91.8408989022581
91.8026289323783
91.8021408267669
91.6551971522909
91.5758291716309
91.5223856623092
91.3651080257307
91.2687894978811
91.2772120908225
91.3003507480978
91.1949233943699
91.0063174239888
90.9316349594785
91.0126145076274
91.0067635089251
90.9456613788506
90.9029891836035
90.7595171035354
90.6799614201213
90.8049539328923
90.8999204341386
90.7981484671136
90.7514736684521
90.8331240626189
90.8439737379682
90.8455605030535
90.8701421531667
90.8639142502316
90.8097149657207
90.8598321394325
90.9721072716896
90.9430774737627
90.8888227824267
90.9735216322764
91.0633354315755
91.1547763984902
91.2262282611045
91.2794437550632
91.3451949322391
91.3895386380722
91.4263205828388
91.4525538654296
91.5173247056284
91.6276897061431
91.7079754919457
91.792505878508
91.8262998052912
91.8384822816026
91.877037769212
91.9614663249724
92.0792601724868
92.1217276434856
92.0807344615078
92.1915895917437
92.3628111673016
92.4172221736735
92.3922355717018
92.3869522639121
92.4199920611212
92.4234288147799
92.4938392716642
92.6225578680292
92.7124997859842
92.7606358938926
92.798379077543
92.8194582836489
92.8422217909243
92.8867432319686
92.9498916539833
92.9772908574894
93.11669714853
93.2587860574396
93.2578459066644
93.3191982363295
93.3796054843023
93.3665585672897
93.4823247053314
93.6737037371007
93.6946936484059
93.6525005850447
93.7301726026699
93.8599451289897
93.982111451158
94.05290889269
94.0985374570611
94.1773875701439
94.2054438151037
94.256034908601
94.3867727699009
94.4866514665626
94.5189146569786
94.5694240071925
94.5830213965874
94.6360688744448
94.7265212677371
94.7683365497284
94.8053665264089
94.8720465014798
94.9342297652354
95.0085925699389
95.0753292474064
95.0575058846486
95.0831624995605
95.2021456318608
95.2444512360909
95.264038171251
95.2972268468949
95.3524754189697
95.3801587620626
95.3831338127307
95.4157017682461
95.4895592056455
95.5511376608471
95.5616901727501
95.5549602689378
95.5841218800328
95.6179877100525
95.6170915116513
95.6601166594921
95.7161633663283
95.7104835303091
95.7277685612462
95.746765808963
95.7291096035291
95.7708155044405
95.8214652069457
95.8232745912326
95.854317484471
95.89548412433
95.841546163369
95.8225741823195
95.8735696688453
95.8690095546272
95.8160743912353
95.7708962734658
95.7797560572567
95.7907499704533
95.7734680151531
95.7356990348363
95.7270759216636
95.7250447320526
95.7420373385372
95.7273696318917
95.7018173135047
95.7020741823931
95.728997733786
95.7597289019834
95.7314135184107
95.6775307862264
95.667367459681
95.6784885379913
95.6650196988076
95.6653125859383
95.6422882212392
95.5666428793727
95.5650164611243
95.6223902098995
95.6330680942061
95.6421679208638
95.6511407356653
95.710194540874
95.7673627525517
95.7971318149512
95.8408812041976
95.87032853709
95.872319617622
95.9021585753565
95.9777867140978
96.0214709740464
96.0666457677392
96.132546314023
96.2254768018348
96.2568513132804
96.246479011985
96.2878426691371
96.3262369433487
96.3425656629981
96.389771383933
96.4163067146608
96.4178059694263
96.4005319171418
96.4058514971071
96.4410760063565
96.472474502541
96.5008803354958
96.4904178952663
96.4731778260149
96.4909807052168
96.5291242051195
96.5305807405906
96.528403078785
96.5456112637925
96.5486286888417
96.5771821030936
96.5785286750761
96.5644648730751
96.5811780269197
96.6019059083184
96.5994407932553
96.6295493421469
96.6595307281148
96.6032014105191
96.5903933877291
96.6147531948267
96.6219453944876
96.6389903621227
96.6544223749681
96.6526016128566
96.6363445196969
96.635390035559
96.6558637363644
96.6808628659266
96.6814803829263
96.6873236107196
96.6810579489115
96.6936603592989
96.7027344720188
96.6813261875937
96.7020091802621
96.7267522725198
96.7264786809121
96.7289327850209
96.7051968913273
96.715419671462
96.7403565359891
96.7406138460398
96.7134750652471
96.7154899723933
96.7442887492085
96.7343689481866
96.7249582563898
96.7836391521209
96.8567071451887
96.872612197637
96.8202950741807
96.7988359350056
96.8384410643163
96.8592626153067
96.8781272684579
96.9150589370236
96.9598480447365
96.9899823997059
96.9291920388705
96.9468768234835
97.0459077743677
97.0572802571859
97.0248860282592
97.018098202106
96.9894708185411
96.9951527681394
97.0238250383144
97.0041422384965
96.9743030915155
97.0045207948582
96.9792149644783
96.9622323884063
96.9891727260984
97.0558059515308
97.0622864507425
96.9941628280602
96.9924846556691
97.0205275842441
97.0355673208236
97.0605214315639
97.1021449280196
97.1234009556685
97.1010815557128
97.0875299435158
97.090097312302
97.0929830284433
97.152503910579
97.2085177565635
97.2056160504636
97.1481671575422
97.119619439372
97.1528314554862
97.1366509056994
97.0721152582025
97.0723305375381
97.10571111842
97.1138424494155
97.1090646527387
97.0935014746897
97.1433273923105
97.1922040002422
97.1692321536538
97.1472282719307
97.1441450604251
97.1428836651858
97.1245814529742
97.1204044846809
97.1468545839478
97.132802682653
97.0940354165708
97.1356917983616
97.1824264949612
97.1644054462856
97.1588724856596
97.1527319946955
97.0984903481611
97.1086641832116
97.1715778195519
97.1307597418808
97.0830940735909
97.1059448811064
97.1713446387032
97.1473204607603
97.0896528885432
97.0665806766709
97.0658771552789
97.0597333065037
97.0972564651158
97.0926246696115
96.9988142999468
96.9858612597262
97.0320483879103
97.0674287287894
97.1224676133786
97.1426131471236
97.1603326055842
97.161275278222
97.1343690199879
97.1465856743216
97.1722101917629
97.2093449547012
97.2691798517103
97.274753684821
97.3190745459041
97.485556209294
97.5223540011439
97.4077950952073
97.376851919622
97.4196369168918
97.5682545356958
97.6219701535942
97.5145020319635
97.5879078092107
97.7020310389645
97.627644642333
97.6165461666115
97.6893969296982
97.7058694909015
97.870349032287
98.0516955468078
97.9780012441235
97.8114520267422
97.7479674115257
97.8517098407889
97.916990202484
97.9029212670252
98.154612697165
98.3374968796047
98.3049915488522
98.3157285768233
98.3599859248816
98.3140036779792
98.27999808828
98.6430430456189
98.7632253370412
98.2102426678151
97.981104348854
98.0868372145082
98.0751203680501
97.8728477975316
97.730388964806
97.6501342937474
97.570568169339
97.5571969262609
97.5243914924503
97.5067605450717
97.4709027373027
97.4491782003268
97.4798095615147
97.4061986684439
97.4514967728673
97.5795234488452
97.5351061810342
97.4687609864581
97.459126673866
97.4537724153112
97.5228079091396
97.7021972871781
97.7856300001284
97.7008205242317
97.5924290570947
97.6350931063621
97.789925958737
98.0030870308285
98.0555951500107
98.0031661294584
98.0935576372364
98.1416533652922
98.0488291716698
98.1071775899224
98.4048605919348
98.5857219123907
98.4956971340778
98.3479740965155
98.1006032911074
97.9342919817359
97.8649742283452
97.8663186673771
97.8926519279168
97.8269100157415
97.872182253098
98.0765135195945
98.3137171241847
98.3920081265919
98.1141647594984
97.8539396093015
97.8904879145773
97.9770420469216
97.9384979819405
97.8326550340451
97.6864303198923
97.6599260238223
97.8007712797659
97.7638457343126
97.6373355149238
97.64797208456
97.6128446405327
97.6065218297718
97.6966507668591
97.7466089391306
97.6893394777738
97.552393020019
97.4925880006245
97.5632775587766
97.5494806754757
97.5196523100862
97.5615334008968
97.5461440143917
97.5371180606016
97.5317802154095
97.4940675480886
97.5035275649068
97.4838016141033
97.4438428396826
97.4616786339022
97.4497966341332
97.4443024837393
97.511491643886
97.4948704663139
97.429598512098
97.3950624223558
97.4054580679549
97.4283787233346
97.4284952980628
97.393235974146
97.3722156082007
97.3778564574372
97.3859885166762
97.361002967768
97.3260016185463
97.3182766716063
97.3149488235823
97.2336944904938
97.2665948294804
97.2942417424739
97.2072726340899
97.1044136513392
97.0444717027821
96.8993397974986
96.6843557879264
96.4033469513921
96.0712415784167
95.7798796121857
95.593817906434
95.537045984322
95.5072127082287
95.4604981324082
95.454565145777
95.5947732790822
95.7691211222112
95.8915604894419
96.0099252762511
96.1133934015296
96.3033351833343
96.3126599659055
96.2360986512675
96.1389371182698
96.0265968472295
95.5838157605738
94.9112275985953
94.1017498444154
92.7469379245711
91.1343471065542
89.8219413685503
88.3272522093527
86.7903155251032
85.4233686570082
84.1069915933858
82.9139645988524
81.76793088574
81.1632974919422
80.9682439301819
80.8841622588517
80.5407996004103
80.9739675665033
82.7056260912443
83.927411758666
85.7018047505952
87.6808989668175
89.2328377181168
90.7356147533023
91.5508119812129
92.2864856016949
92.9682035028466
93.5280561243728
93.9668595247029
94.3307160160847
94.6212107251909
94.9047849835765
95.0409829921421
95.2482865240894
95.4690292939136
95.6226023748132
95.7541512830208
95.6880587346112
95.8289009885093
96.1311188478229
96.1516207649765
96.1350732910462
96.1449476158304
96.3564425610204
96.3516564710236
96.3664055886514
96.3865234867015
96.3810462302883
96.4492866757998
96.4921050076111
96.378176444261
96.23957644792
96.4558132549985
96.5687450761226
96.5243449530617
96.5592857813346
96.5510309582753
96.5753462680585
96.536606858717
96.4686607780785
96.3749587209778
96.3193168123181
96.2836204699332
96.1651626335966
95.922290293148
95.6667261389689
95.6759385414559
95.6992567548283
95.7644634758408
95.7404451954995
95.5800518256396
95.4302274876938
95.3352284313692
95.2429297776916
95.2064832362175
95.2608576080359
95.4210038837759
95.4551280039374
95.4471793122183
95.4958650479484
95.5434780238343
95.5214259283193
95.4474168701897
95.2116512180359
94.8171001345719
94.4622181091781
94.1516606191751
93.9606141771594
93.9899447643017
94.0519861395711
94.2622471017323
94.7315213540051
95.0365148258174
95.1180894933282
95.1236441918399
95.1318998533997
95.0961725416587
95.0389467346112
94.9457575593905
94.8150594907429
94.7084432475568
94.6316839058163
94.5766306840526
94.5105888698868
94.4465067930077
94.320397932276
94.0221894068041
93.2962258519709
91.6738178052059
88.9535147752683
85.5382383734871
81.9070320921909
78.5530219631617
76.5727005720937
77.8543950016191
82.5001470119862
87.3401890822354
89.9696400907189
90.9959293547953
91.3396006879888
91.3763776389555
91.3206369375631
91.286162951599
91.3263484412491
91.4923552414444
91.7571196945098
92.0296171249579
92.1465103846755
92.0759911009617
92.2350419618247
92.8262819139156
93.4001775819733
93.8436754184969
94.2510048961861
94.608474471237
94.8612773241144
94.9474972373453
94.8439799919774
94.6028195059251
94.2601998142459
93.7965408840208
93.2048949740682
92.5122232721897
91.7871413830895
91.2374922807701
91.0261443386726
91.1155885647848
91.3249016179351
91.4790674943268
91.4643176847111
91.2185221055845
90.7531809497852
90.1184905920595
89.3504944175146
88.4908827211416
87.5721274624387
86.6880788482339
86.0344437695703
85.6862830416156
85.4453512934726
85.1378502756366
84.7321536993524
84.2143114685541
83.5335844550734
82.7339132064421
81.8954072117515
81.0652167868621
80.2693558045532
79.5502009067219
78.8851166828209
78.26032687477
77.7140958264723
77.2691576553983
76.9370272068783
76.6866626630807
76.389433144274
75.8945628970965
75.1446200753801
74.2886143594339
73.6049215607191
73.437883123727
73.8334204495532
74.4804386408648
74.9154522241736
74.8148103290624
74.1352465928005
73.3621898783817
73.1465396628217
73.6810030412701
74.7883723450886
76.2350652422759
77.7752860504507
79.3128692295353
80.7547656358901
82.0432647937417
83.2507617322088
84.4290423154854
85.5344963728277
86.4640832456521
87.1191791657238
87.4989367491607
87.6172546701957
87.5460544131274
87.4300991870073
87.4308601959279
87.5457944920421
87.6455638799969
87.5378949219319
87.1189180918279
86.5016597911148
85.8667062420399
85.4245827452125
85.4889120571441
86.0049052564903
86.5389475040821
86.8869780090726
87.1168726372208
87.2127026288019
87.1008544244265
86.711970212194
86.0587726632551
85.2775846648928
84.4457593216729
83.5693553184981
82.6260343617402
81.5553649385819
80.3773195983755
79.1852968302148
78.0227231642511
76.9584410535863
76.2647275567927
76.0319737693996
76.2249533649167
76.9189020600927
78.1019244740009
79.6421708987998
81.3852944928623
83.2715181979082
85.1034337087146
86.5974854936623
87.6535057823517
88.2331367145489
88.5753962131477
88.8529740930193
89.0128197997897
88.8642578654714
88.1801601373477
86.8447793885939
85.4104406267478
85.1752843911972
85.9634433247919
86.8580399298437
87.092296835946
86.6187616619422
86.1407412906668
86.0336312962061
86.2898860860938
86.9724058145064
87.6638388163104
87.9787481043221
88.0133492369018
87.8803654580907
87.6771609025673
87.5889610321022
87.5182277330389
87.26284570542
86.7058325646021
85.8259195375036
84.9713967003152
84.4760020079955
84.1855819411371
83.965697408313
83.931310928496
83.7336103613991
83.528637682347
83.744291070498
83.8933982899175
84.1127790617706
84.7065747588826
84.9566215660568
84.3997878799164
84.5213194636841
85.4808317941375
