900
3999.43349933624
648.556783676147
1
128
8
96.9052307449918
96.8660823691152
96.9240049319608
96.9312247591362
96.92796179057
96.9103305934701
96.9153131527459
96.9365656527233
96.9109964025652
96.9078673987009
96.9898893304321
96.987232096549
96.9430948071106
96.9261980578682
96.9089819961541
96.9237068294714
96.96176380424
96.9978558759991
96.9916575152876
96.9746406463014
96.9750876421148
97.0073849067939
97.0204363579759
96.9951990806714
97.0360683720936
97.0840328038816
97.0671220613922
97.0162159450731
96.9883394275122
97.0235802938583
97.1184191153993
97.143851435673
97.0929460353505
97.0344298355963
97.0076386428268
97.049380651378
97.0572928516106
97.0499332731877
97.1023533267558
97.210931950213
97.2031668093784
97.1728196077961
97.1578213803298
97.136002786413
97.1590323006244
97.141800729559
97.0956673430234
97.1047355934222
97.1971897270735
97.1919263203121
97.1583509971207
97.1849010778874
97.1786074161254
97.1124280660563
97.1585990364026
97.178044905975
97.1170778374509
97.1106459401966
97.1204787416825
97.136574245091
97.119963910031
97.1159489212766
97.1288894239415
97.1015044497896
97.1179423951237
97.213847157758
97.35448417435
97.4323580184074
97.3661832991389
97.2471494284687
97.2702220230922
97.3861106726097
97.3395375604027
97.254219912603
97.1593883840667
97.037983344515
96.920129739233
96.8880794630588
96.8238285792736
96.4831284635808
96.0328632989391
95.7287262114766
95.5860711726258
95.6985782864402
95.863217450567
95.8768159658426
95.8729836096393
95.8994873913834
95.7793753092324
95.5399134481119
95.3644827895329
95.2536123801125
95.1896771367504
95.098988254177
94.8937562876227
94.7793925090751
94.7668295448295
94.7512890209845
94.6801140963437
94.4928318119331
94.3275140120034
94.1727912321072
93.9794698855753
93.9846967344709
94.0949932302756
94.0381058292653
93.8975149876329
93.7953038164518
93.7118963432107
93.6344295599128
93.5674766213566
93.4514811463245
93.3421353028607
93.3514096779367
93.2434364622504
92.9868853761338
92.9617920381065
92.978356149419
92.7570401301378
92.5821327147484
92.5680925882445
92.5285113609572
92.3933435217423
92.25654954916
92.1358050159751
92.0633074094892
91.9745089378368
91.8060974701351
91.7072217098017
91.6631290552516
91.5508961597634
91.4494843768272
91.3338546286784
91.2175606612675
91.1337241782166
91.0296994643118
90.9521356495154
90.8691060488844
90.8582593763238
90.7470552525916
90.4679550049461
90.3448795213471
90.3438401225125
90.2901266110954
90.1815604738231
90.0873407003965
89.9833953180523
89.8794454967932
89.912454607852
89.949272193846
89.8219870512148
89.6807185799732
89.6413141872502
89.6911895023438
89.7239945613452
89.6808696936617
89.5625873722786
89.4987290101076
89.5376925461004
89.5894089949835
89.5979364071077
89.5853693335375
89.5685279210506
89.586324921407
89.6082551316428
89.6201894308128
89.6397380326116
89.7183561633864
89.7880377159759
89.8550833039737
89.9286025793816
90.0175998971346
90.0008276004407
90.00327022215
90.1372386926134
90.162153056667
90.2229572688019
90.4018110548075
90.4834590760642
90.5096238523772
90.5156345969933
90.5652871162819
90.684354098463
90.7615420233009
90.784616623165
90.8340030752329
90.9597567273485
91.0330484050387
91.0447269110617
91.1171675108815
91.2201770240237
91.2834759522141
91.3226504912462
91.3191899583353
91.3458034369416
91.4559590190845
91.5775136521492
91.6727753453896
91.7004528814122
91.726348924139
91.7505238710717
91.8138812484127
91.9626701788095
92.0825622765304
92.0731232590616
92.0861539864799
92.2207924391305
92.3321986285254
92.394413011062
92.4952759344645
92.5805579874214
92.6484761101325
92.7396189748776
92.8485884762875
92.9388610733366
92.9870972844761
93.0381136687095
93.164220317283
93.2490899911545
93.3360842009062
93.4733861680934
93.5455595694576
93.5984517259585
93.6878936230419
93.7365360663582
93.8030899893115
93.9284047004141
94.0486374179914
94.0840874800582
94.1042945460491
94.1874066284431
94.3345958654027
94.4163685224523
94.4140407230249
94.4972692928067
94.6135824015324
94.6271615674431
94.6562702241427
94.7299407208307
94.8255161079756
94.8799867055659
94.9109196393145
94.9543039870612
94.9680736649086
95.0362824072418
95.1361021488922
95.1471780662744
95.2016106535673
95.2600870538933
95.2742409404655
95.264930225112
95.3235940673745
95.3507963090799
95.3625974064652
95.4304050483367
95.4470445892447
95.4667878938748
95.4840820164122
95.4692702857946
95.4863258954557
95.4576708302992
95.5098094003957
95.5955568097923
95.6032031870269
95.6030674848894
95.6054900126316
95.6153876073338
95.6019378948231
95.5196641519857
95.4741610664168
95.480012282591
95.4435974748452
95.3872309778432
95.3435263707223
95.2995344158363
95.2500286932954
95.2111891452317
95.1887829134883
95.18807109085
95.2139401715836
95.2294295942424
95.2437692893802
95.2159673182226
95.1529442254998
95.1071127517427
95.080526079899
95.0625200365942
95.0111687066434
94.9504802162025
94.926417166542
94.9059000857691
94.9014886987718
94.914582478619
94.9317023175809
94.9808989600554
95.0411819060917
95.09982686561
95.1616179733075
95.2079178608606
95.2709774785733
95.3143234748143
95.3704254778486
95.472970965149
95.5593987977836
95.6271691998773
95.744530466943
95.9121009468819
95.994053584963
95.9956052380402
96.0507729666005
96.1288123264796
96.1766478658781
96.2153073389487
96.2426155759165
96.2329151152411
96.2555037436435
96.3152059586683
96.3332087843436
96.3487556733282
96.4004643035662
96.4282935656566
96.4253685392545
96.4391575579365
96.4391775096755
96.4513971408613
96.5125272442283
96.5183241940074
96.5012431933638
96.5390253441587
96.572095118439
96.5838272483886
96.5673659752872
96.544368019881
96.5734137342207
96.6085927077047
96.6138853906002
96.6173846403445
96.6166918938242
96.6038938339455
96.6201390950129
96.6043934669103
96.6136806691833
96.6746484607779
96.6748268528723
96.665521151051
96.6950155136671
96.7027919000912
96.6852668026632
96.6743951181808
96.6946970739313
96.7357718848406
96.7582645791161
96.7649711085895
96.748111346243
96.7406494530665
96.7692271478876
96.7731036136405
96.7516735361995
96.76068117019
96.7916233537788
96.7880261169681
96.7528271895932
96.7481153236368
96.7719311375194
96.7714142113719
96.8069536547318
96.8675470888223
96.8625582376596
96.875242130469
96.8820266200973
96.9303370814605
96.9775766074028
96.9607563302579
96.9778219074816
97.0117633974522
97.031144327339
97.026548409291
97.0462519432254
97.0845168308827
97.1335061175954
97.1534688231465
97.1482731924975
97.1209009983983
97.0900981151846
97.1592838579119
97.2394909958043
97.150869232866
97.054366273703
97.0436067796977
96.9887387187253
96.976037261474
97.0812335572835
97.0980697226159
97.1115457891387
97.1734159305305
97.1743947997417
97.1899677502466
97.244926730897
97.2455148661166
97.2367207126758
97.2255087365051
97.224587282439
97.2416533984487
97.2314730202377
97.2389037719779
97.214282012206
97.2405558661867
97.3193164136133
97.2864804852759
97.2555827241668
97.3031705887934
97.2979410872353
97.2662343904029
97.2687675914101
97.2694851193738
97.3209766404477
97.335482074631
97.3226349595963
97.3231219718488
97.3158021512208
97.3281321206232
97.3149167086008
97.2777314537322
97.3049744226585
97.3596853561162
97.3479445659078
97.2945931437385
97.2904432998028
97.3212631973704
97.3154167318478
97.3243831318683
97.3467974787709
97.3409481374518
97.3009179288983
97.2858332996428
97.2967063299879
97.2829599813817
97.2923018895201
97.3039311218544
97.304225710545
97.2625244897567
97.2421672603561
97.2640890700701
97.2449097916263
97.1990708366584
97.2055556931732
97.2259900788702
97.2036086083605
97.2202318830833
97.2011426958738
97.1764530469066
97.2290566204882
97.2667002637247
97.3185199798232
97.3588287221545
97.361862906278
97.3833853064919
97.3833067093517
97.3387571306933
97.3550086403277
97.432515990087
97.5561958310606
97.6589982996589
97.642390769184
97.5819493289902
97.6134886106802
97.7273287612696
97.7695389550566
97.7918139583725
97.8066578284779
97.7760345442805
97.818747327552
97.803830151447
97.8535891115358
97.996141184453
97.9755543111231
97.9327339245375
98.0236493818485
98.0610075871928
98.0443161100859
98.077043957154
98.110049936543
98.0990679044014
98.093734722338
98.2643935422613
98.5825135441506
98.5739340393074
98.3843748275506
98.4657494405269
98.4697881154152
98.4834698784967
98.5909070910974
98.7442348859375
98.9816273276255
98.9177025217118
98.4777141142723
98.1512610180099
98.1237120634573
98.1314429921096
97.9739907030751
97.8323271403171
97.7605706703057
97.7041520822123
97.7771502027312
97.7395898999725
97.5379375006829
97.5138367813149
97.6076610771345
97.7004457922009
97.7267027530653
97.6566489886791
97.658551948843
97.7033575886937
97.7559132683985
97.805861649617
97.7196861918764
97.6855258690021
97.770266683555
97.7631409304528
97.7052841287013
97.7150199041759
97.9130478097212
98.0802660782344
98.1671187124375
98.4853720496989
98.5649773893966
98.3626995571696
98.374991182842
98.6184214787112
98.6994493778509
98.5109717979803
98.3846576147614
98.2252144072585
98.3163774790631
98.5022510316744
98.3854267763812
98.1387759729831
98.0754716262281
98.2263335337384
98.2579651650507
98.2464285792279
98.2299464157441
98.2624201474217
98.5303188898124
98.6626853887996
98.4757164140339
98.3346320229178
98.35399645709
98.2933965170173
98.1229504632971
98.0379882498404
98.1470902790338
98.1602219151965
97.9004107082511
97.7928562574949
97.9018610651131
97.8935358263066
97.9155899670401
97.9346234364976
97.822925794847
97.8391845076362
97.8779334007985
97.8328050804447
97.8029352157389
97.8128100836183
97.8842319662764
97.8655468282921
97.8470691989843
97.8317389107115
97.829891143887
97.8245882996716
97.7536675301413
97.7629661901619
97.8414410352075
97.8195600748099
97.7562564620879
97.7421195553965
97.7841116937598
97.764713696724
97.7351990887286
97.7083493132527
97.691245255472
97.6996276217736
97.7049393459885
97.6648101765704
97.6460801207011
97.6245276788218
97.5924788272537
97.5601074349459
97.5451107217659
97.5256964098933
97.521744683131
97.521207630548
97.4183651422937
97.2541786204927
97.2066214308269
97.1527205834377
96.9883689060145
96.7068108924835
96.3568463615834
95.7835052009364
95.126378275707
94.6585165075026
94.3306782321651
94.2009584075479
94.1914101167944
94.1475524206156
94.1519215727324
94.3816445596302
94.7493847518787
95.0322406966028
95.2825557655859
95.517859697456
95.8408349363986
95.8842108378371
95.8044590098854
95.6293908096465
95.2768639560764
94.5423325987836
93.5123937825897
92.2202114856344
89.9119517535925
87.4261591637655
85.5101617030423
83.1356903736098
80.6327583511318
78.6047556149492
76.6745681746146
75.0399886411203
73.3686654486502
72.0675534794303
71.5979628147843
71.4568447340003
71.2555932922844
71.885492072754
74.1780598935448
76.2022969331771
79.1412900689995
82.1854651777213
84.5964807873567
86.9454506276152
88.2602075237186
89.4559178742805
90.592205852076
91.5392893648227
92.2600149057834
92.8937793983466
93.4183993840215
93.8833758848882
94.1168475964796
94.4147635142123
94.764761085648
94.9981124667358
95.1785389028262
95.1662814942239
95.3923447594052
95.6935716316753
95.7250320907437
95.7204225982839
95.7150594350293
95.9926280678492
96.0406516151736
96.0734701628809
96.1238088110829
96.1794588284788
96.2020069249019
96.1284044343585
95.9314498539469
95.783710973026
96.0732966138117
96.1749828434769
96.15346920824
96.260501198287
96.2195132079612
96.1999496830401
96.1723853241004
96.0956325108213
95.9471031200139
95.8265384256321
95.6736589663295
95.3641677084669
94.9922922266546
94.637155109393
94.5955088800322
94.6568873375329
94.7362582005138
94.6955665982962
94.4573161233873
94.1491037506066
93.9212088384185
93.7903089109834
93.7884431821576
93.891303453415
94.1094263850196
94.1940583188113
94.2461047075906
94.33469230391
94.3778597736612
94.3391891850175
94.2025507887947
93.8193194966393
93.1555352016148
92.4928252297419
91.9703096716495
91.6744741432226
91.6651174445186
91.8174605915466
92.2444584810978
93.0105345028126
93.5270957632922
93.7213583178497
93.737146737669
93.6754527521574
93.6017395100243
93.4966745091835
93.2932496007646
93.0498366659193
92.8737006538289
92.7538634763492
92.6317249538378
92.5215239614869
92.4292790839023
92.2343924357784
91.7421464142687
90.5149791440091
87.8723399628799
83.5966393045357
78.3800155724536
72.9105392613468
67.9152745679583
64.9132654127628
66.669240888506
73.4381884295508
80.6571502509027
84.7098065586182
86.3556188383252
86.9301207850029
87.0343659258176
86.9672574249152
86.9381558690881
87.0469611829495
87.3393503585916
87.8057939818553
88.3182507061261
88.5901795827692
88.5558291715203
88.8984178211599
89.9435810479293
90.965116863367
91.792967821956
92.5833790644507
93.3076727495002
93.8261528119521
94.010349987763
93.8814104103173
93.5345172453086
93.013309387247
92.2891316591939
91.3573860278973
90.2470259729884
89.091706816321
88.2229342822431
87.9394676759657
88.1928534291412
88.6656051652812
89.0493987376735
89.1713295452611
88.9302571706445
88.3003801992723
87.4043802448522
86.4086323638639
85.4008579086095
84.4520832266728
83.6964385021381
83.2293378244076
83.0195943392307
82.8693174437337
82.5812388725143
82.0551066579554
81.2478484113559
80.1415507944927
78.8327033682663
77.4687664123857
76.1702627363851
74.9662052484099
73.9024354146604
72.9958152129326
72.2509834346589
71.685869457076
71.3930856719825
71.4263259914286
71.7113162019972
72.0064113398452
72.0802421582056
71.822367656749
71.3611507605921
70.9962112893992
71.0141142978888
71.4277723628545
72.0988706716791
72.7064167815697
72.8472737044376
72.3837673494494
71.7331473304752
71.4511272882797
71.8088688907345
72.7599825921879
74.1459049339301
75.7759120862319
77.5099401227332
79.1950782846066
80.753936582421
82.2539783869476
83.7830745955664
85.2529848161493
86.4757561170186
87.3466671939158
87.8079615043357
87.8885155788157
87.7985507316907
87.7907701422182
87.9763063364362
88.2534063030133
88.4246568564751
88.3094817044501
87.8544724867652
87.2051119924705
86.6387501764342
86.3251691885883
86.3203720627913
86.4864557695325
86.5880388212538
86.5659456098527
86.4804407176667
86.3321200928632
85.9480605215969
85.1614138866355
84.0126129865531
82.6840707548817
81.2720367964304
79.7311898115898
78.0336413096493
76.2092735923144
74.30452481169
72.351450405685
70.4472454510237
68.7832825824225
67.6002693991374
67.0058486799756
67.081580340308
67.9196656109011
69.4660983217301
71.5412509173132
74.0329296105919
76.7667705750447
79.5161403853807
81.9470753867082
83.8233891768148
85.1050545459563
85.9290947393635
86.4566031683242
86.7916523605604
86.7136604118409
85.7620129936153
83.5390279553067
80.7908852610812
80.3962049521265
82.2409492611925
83.8392813590043
84.1234011516617
83.4202873362822
82.7157640507748
82.5838305335854
83.0001980138065
83.9862321308724
85.0893732709573
85.5641005037556
85.3988763259231
85.1490064517552
85.0641281232285
84.9173246455352
84.7054843702643
84.3566005553051
83.6058062570265
82.6152792612193
81.55166409636
80.7933478187795
80.5353853831533
80.2128088956919
79.78428319979
79.7880445963595
79.9470876481921
80.0561225197585
80.2975325303472
80.8636770999019
81.2754346302033
81.1409627972557
81.4008350200518
81.9710493409714
81.6602887999601
