900
3999.43349933624
648.556783676147
1
128
8
97.3944851085268
97.3558678527611
97.3229919918608
97.3967901237668
97.4480143283083
97.4454188852963
97.4328778549436
97.4221885555573
97.4355452784973
97.4442186040825
97.4465323823378
97.4717704845052
97.4619149683156
97.4457663407526
97.4879250912962
97.4927469036946
97.4129229149682
97.3956604197237
97.4507365672143
97.444213512649
97.4839032964512
97.5445264361933
97.5188979379631
97.4964409151762
97.5273245797188
97.5977906472768
97.5672680350946
97.4667306071592
97.496121930745
97.5878087549406
97.6357621593258
97.6214914257943
97.5943485256505
97.5960504696647
97.6683312787304
97.7572536377144
97.7355980033937
97.5960960825099
97.5711151787889
97.7010057237824
97.6481684632443
97.5954229976173
97.6713767240192
97.7049815380585
97.6498034128335
97.5787338477449
97.5674987730573
97.6416110338256
97.7078193628986
97.6895014456225
97.654433227368
97.6209437452345
97.7035709987329
97.7294195532982
97.6197158468657
97.5638368481675
97.5464408793215
97.5398807971116
97.5694853467625
97.6221758874856
97.6164968283175
97.5942598661478
97.603784485761
97.5943440014257
97.5953819710563
97.6962645538248
97.8386578521878
97.9142463159172
97.8516817869764
97.7003944650131
97.6609033329643
97.7487233953585
97.691650695716
97.5897378865595
97.4783410074075
97.3554801823439
97.2410327741793
97.0530163213818
96.80654810457
96.4265791706347
95.9740119002782
95.7029751240419
95.5992036208556
95.723571102922
95.8812888239294
95.884116503123
95.7981425535233
95.5778753793028
95.4487944840894
95.361760186645
95.146410872248
94.8461979955703
94.662610531398
94.601897129263
94.4735667969289
94.3766334356059
94.334267149513
94.2642752741219
94.1554490091596
93.971294173235
93.8319110936807
93.7260139678056
93.4889814565517
93.4547955927054
93.562673946143
93.4326757644854
93.3334877935267
93.2350274099247
93.017115858638
92.9437440334967
92.8546327269173
92.6342498626587
92.5580164831093
92.4197480101152
92.2511631644869
92.1893277297339
92.0179258773378
91.888164189507
91.869255393948
91.7307958118076
91.5431830439511
91.4721652035326
91.4276871118053
91.3020420429602
91.1262758038157
90.993398585857
90.8604246322311
90.6918720187208
90.6184931103683
90.6180606063874
90.476435782423
90.2139362963212
90.0879497517859
89.9997780830342
89.8363921422441
89.7314525761013
89.5831959715997
89.4256377211986
89.3964478632938
89.4254941421773
89.2801487251435
89.0766199711621
89.0046755829818
89.009203847234
88.8905651897741
88.7486162504955
88.6390375109875
88.5920511933216
88.6224587175604
88.5988874867838
88.5937760338201
88.5055483669908
88.3328693159883
88.3143207040505
88.3542026979843
88.3475565215025
88.356560436987
88.3540286366147
88.3007343382832
88.3167950911905
88.3356209558718
88.3757940533919
88.4294089640864
88.4318192596724
88.4688944030226
88.5404724049157
88.565732029334
88.6365323965198
88.7427075858045
88.791447099715
88.8866865698292
88.9974612154096
89.0670480103764
89.1313578395128
89.1709392288659
89.261917421326
89.3914513710182
89.5965475080463
89.7248415198866
89.7500092571663
89.8273826657464
89.9448981673206
90.0575131865139
90.1768021703963
90.1826953138787
90.2300253166105
90.431972975142
90.5769364733012
90.5614092038625
90.6279984971637
90.7899847397953
90.8635147589528
90.9078192893966
90.9992194790748
91.0390725230357
91.1483076128233
91.2833842431278
91.3567449669257
91.4195555569429
91.5226084823304
91.5894660562436
91.6919652282669
91.8024765629246
91.8325189822078
91.9205015089017
92.1139247837011
92.2170136722042
92.2549261385103
92.3778371520727
92.5300438989899
92.6315520580577
92.7046833414046
92.7983679511549
92.9877144349786
93.1141134049368
93.1655593551532
93.2944308531281
93.4582705996846
93.5756668965278
93.6839036135244
93.8154283474877
93.9024186878572
93.9479423784077
94.074528660005
94.1640401356934
94.2321101728839
94.4010353111663
94.5499721098086
94.6039661745895
94.6459066265757
94.7191353285595
94.8040035954172
94.8897243832605
94.9699835578802
95.0656077135823
95.1765809472096
95.2051170348233
95.2342472307468
95.3366647342417
95.4240705928927
95.4823257291242
95.5275356494296
95.5866597010285
95.6441937807381
95.7292085139808
95.8274947817172
95.8384091176809
95.8285945959771
95.8647068385743
96.0015570940744
96.0814907928175
95.9880844158749
95.961394132913
96.090459465717
96.1017360571266
96.0840969387416
96.1049191705081
96.1256257478559
96.1309235326845
96.109265463623
96.1356735431961
96.2044407365289
96.1960736132907
96.1511086965691
96.1295155352569
96.1440573321393
96.1487802736336
96.1469549971401
96.1120813654487
96.0343172094262
95.9695343190113
95.8408130494042
95.7518127240781
95.6911777547576
95.5618236272968
95.467376744677
95.4455477762504
95.4250594936376
95.4082339837254
95.3857921691064
95.3787977134299
95.3550602116223
95.3203616654408
95.2596228760101
95.1978335116026
95.1029100941734
95.0017323668397
94.91698399199
94.8301488414839
94.7768564587741
94.7483001131116
94.7426398491469
94.7907722794131
94.8589718961771
94.8702317343872
94.9377453383747
95.0598904166624
95.2027048822867
95.2832525143612
95.3377191232368
95.4257977935916
95.5806806749108
95.7331948319384
95.8709335525856
96.0159103868897
96.1656093502492
96.3202888562481
96.4114937834434
96.4912034955993
96.642489680521
96.7420916177007
96.7601129319548
96.8336488503824
96.9340837144562
96.9582667028475
96.9493503012013
96.9947720426552
97.0302546216458
97.0252907549458
97.0796011454843
97.1421667780538
97.1196055076234
97.0966617340651
97.1194997915682
97.1647654158809
97.1811945618943
97.1814615334306
97.1986631693612
97.2500314362672
97.2667891321901
97.2657475885689
97.2777268082005
97.2808991569393
97.2763002868574
97.2835847195005
97.3013988699085
97.3210075850667
97.3171004867267
97.3086732738396
97.3064839587544
97.3095750065467
97.3428537547437
97.3593293516577
97.3577772489447
97.3473026803077
97.3620964685552
97.3984627328108
97.409695131906
97.4152042214988
97.4445579122576
97.4380915216267
97.421619885429
97.4303726378775
97.4205666611537
97.422164606041
97.4594160387026
97.4468572563585
97.4566905173842
97.4907335834991
97.4577202671187
97.4315983704033
97.4486996980263
97.4397679153417
97.448334794667
97.4598656072546
97.486229978671
97.5455102974759
97.573631458003
97.557650184902
97.5563759150203
97.6101672732986
97.6750017759009
97.6889169084932
97.696120195643
97.7021284231936
97.7166526444799
97.7585816836803
97.8292615441358
97.8313561325916
97.8517828302347
97.8688399071942
97.8451875812909
97.8123202297849
97.782462032225
97.7851506023244
97.7840399101024
97.7519691959118
97.761227308462
97.7290468672691
97.6664789318976
97.652920280494
97.6648377774828
97.7061894699408
97.8008626110735
97.8924145276945
97.8921030253838
97.9225880455583
97.9626980763677
97.9148123809023
97.8689523131325
97.862750220439
97.9507899541343
98.0158968848284
97.9304798572325
97.8538484013307
97.9030945147886
97.9707283009418
97.979054231248
97.995246936656
97.9782079064871
97.9707357510647
98.0046459781633
97.9829111225665
97.9788212257403
97.981183556023
97.9653434812708
97.992443886522
98.003773372213
98.000367749047
98.0239722214193
98.0194083133282
98.0158945044861
98.0644543468316
98.0937773639104
98.0463221718898
97.998636951382
97.9971272523472
98.0167994327268
98.0292215877259
98.0425725205363
98.0096691044292
98.0032274324315
98.0184198028935
98.0388517571453
98.0360776050923
98.017268201194
98.0492936750564
98.066126329351
98.02589234959
97.9296567751591
97.8708749847238
97.9295003942465
97.9707280035119
97.9290936693753
97.8850242704863
97.9110732816316
97.9533263710601
97.9572220334429
97.9151232325297
97.8119381288617
97.798079832804
97.9316790635213
97.9577543714722
97.9457297181202
97.9712517441561
97.9918467614031
98.0476714212344
98.0146455045911
97.9815835833249
98.0389320601697
98.0759676001509
98.1108194271631
98.2084555807358
98.3248973627223
98.3226913267046
98.2997993811439
98.3388063972705
98.4017931396631
98.5413588999486
98.5445140564298
98.5108508045404
98.53782763146
98.4786878005848
98.5732636908342
98.7540624124409
98.791980075198
98.774916620073
98.6838784700896
98.5384952740955
98.5767046687079
98.7398469166857
98.9023132315399
98.9136416432709
98.7508946169818
98.7989694342661
99.0681691722337
99.1388517689702
99.0728277247624
99.107736112491
99.1757054805587
99.1611390822314
99.034917204951
99.2121034184612
99.5586905847389
99.5321294351719
99.2503457173119
98.8107971142378
98.6475947424834
98.7140165031823
98.5719208466767
98.4287253623322
98.3976636532023
98.3802344937075
98.31164432385
98.2033322744962
98.1820082828954
98.2725750335037
98.3573064738422
98.3122790369638
98.1886696319164
98.2147980429735
98.3035237669442
98.2863520375657
98.2121920651461
98.1629072435874
98.2514211326083
98.3894225021471
98.4512350269277
98.4533127817144
98.4411789725131
98.479663574387
98.575175107988
98.5263703708958
98.5159173119105
98.6133801998788
98.5841072364609
98.742157335859
99.1044106144906
99.094223148381
99.0059777236078
99.1247052043722
99.2777407594285
99.1637353052515
98.8895262506685
98.7416782261795
98.6377670921843
98.6184299635642
98.713096095856
98.8220977856237
98.8915405839917
98.8858453740864
98.9721916015401
99.0412546149544
99.1346674687891
99.3403842248073
99.2068044154437
98.7205447930024
98.6417135794648
98.7362966657609
98.6860750289883
98.5490884513163
98.4948737580456
98.5124617450567
98.5277992405556
98.4705276494801
98.363321301923
98.3593304637148
98.4219346731938
98.4060261360758
98.3972008279055
98.3917784059266
98.3863574481818
98.3500090572775
98.3806744880557
98.4286176311679
98.3730894683427
98.3440511363616
98.3578238868062
98.258453425391
98.2712556772166
98.3134099022079
98.3009326527764
98.3250969335694
98.322611052928
98.3206611687051
98.3187986841794
98.2580536134679
98.2507198543013
98.3206588496481
98.2534670949532
98.1246427714381
98.1534232503146
98.1972486624048
98.1655889456666
98.1228109121579
98.1619683348282
98.1187624572452
98.0509789293996
98.004352887019
97.9600171912471
97.9106196644336
97.8886754285592
97.8069705230617
97.7403736775884
97.6385021777999
97.466447604283
97.2957484850873
97.0764516992646
96.5966125010666
96.0069674449985
95.1704738750667
94.1524166331122
93.4106461838638
92.9433498951546
92.7691011537832
92.7439851135206
92.6978207606706
92.7246347629003
93.07862442213
93.7290833416425
94.2315508087775
94.59842030039
94.9542400832947
95.488213635999
95.6466524894535
95.5819491545185
95.4094492698744
94.9392767347314
93.8535690308853
92.4810288965065
90.7982305647351
87.6348732394021
84.3811354171263
82.0039016288577
78.9943428560243
75.8330669882607
73.3791038498015
70.9745101970107
69.0409170690256
66.7958062472917
64.7682171009123
64.0781491008237
63.7768038341937
63.5354878306693
63.7792205626097
65.990132539463
68.3124080993457
71.7634855194921
75.5432333695499
78.8275464938664
82.0901565573056
84.1007080816581
86.0334436519862
87.8251715358114
89.306235605756
90.4913158088696
91.5582680918396
92.3960669701269
93.0523971019326
93.4180901154479
93.8979384378551
94.4082663268979
94.7364405754416
95.0077762794149
95.0428771491156
95.2857553485211
95.7090224362419
95.7690574440738
95.7901720538044
95.7713104508587
96.0289723244672
96.1621630599671
96.2196914479176
96.2568223565505
96.296048413534
96.3216157251181
96.1685352882697
95.9088032241385
95.7762788721106
96.1217444388339
96.2662600594668
96.2283546807267
96.2764356969668
96.2374277651575
96.2010265650578
96.1416556526022
96.038414598102
95.85929329448
95.64098403995
95.3982055179556
94.991854251952
94.4966302678797
93.9990503099738
93.9246293272585
94.0127761825133
94.140114866556
94.0653779070327
93.6642279703139
93.1845791392942
92.8948415489718
92.7657806891635
92.8233956865393
92.9890740571029
93.2951102614465
93.4508973466075
93.5342235793335
93.6507840645678
93.7229738141459
93.6690214253622
93.4356686871816
92.8541431726739
91.8718343423992
90.8950620619307
90.1574190539592
89.6939870059205
89.6030934162495
89.8327522346439
90.4862763539513
91.6380195436098
92.4134380211793
92.7237034368653
92.7470847287447
92.6475436824298
92.5285874480079
92.3686720149996
92.1377327286662
91.8205725624838
91.5538702412862
91.3658377537186
91.2055776730543
91.0825365485713
90.9433614029937
90.6579022408082
89.9841693920636
88.3651132721419
84.9635684516312
79.632069685669
73.2933705338336
66.7325748105219
60.6840788783905
56.6917045010018
57.7559930095487
64.595321046753
72.8439749634257
78.1262143343753
80.5895629059404
81.5562912178155
81.8180965604704
81.8124623448279
81.8060575578739
81.9466293399873
82.3740827950737
83.0978294847881
84.0162734568717
84.9852189481096
85.9744829408211
86.9588395412762
87.7625080614749
88.5032063670852
89.4394017334053
90.5624574819599
91.691867914348
92.5414452635198
92.8792806958743
92.7482794712944
92.3029345428026
91.585114440909
90.5661799404845
89.2768081555068
87.8138051750356
86.3688778975799
85.2911551293116
84.9225403883843
85.2558319704179
85.9244571921733
86.4997331225665
86.7110286840365
86.4531621466078
85.7099897912869
84.6176398385675
83.4007496363155
82.170063996362
81.0183248624228
80.1306661110051
79.6396961115522
79.4479860931418
79.2529013439105
78.8805382614999
78.2623559770675
77.3152466239944
76.0135760420086
74.453183529057
72.7838219683547
71.156536742903
69.6504562123467
68.3128955986472
67.1447937339769
66.1753278225324
65.4350927989831
64.9816844202688
64.8618122671693
65.0399380718247
65.2650209000186
65.2911460269862
64.9891757771053
64.5082029596548
64.209671264626
64.373331254568
64.9207641355612
65.6611842273428
66.2928641483437
66.4204255170125
65.9013238011088
65.2278893265662
65.0086201961633
65.4533095489217
66.5227984697597
68.1159229777664
70.0062555691933
72.0126547626623
74.0028440707653
75.921306184501
77.7803170170881
79.7291541196247
81.7593660117887
83.5140578336194
84.7113740896093
85.3252274107937
85.4504933307848
85.3641180068565
85.444963694624
85.8404276552091
86.3107244983313
86.587900342219
86.4503698750843
85.8658613542766
85.1017430059876
84.4640167811422
84.1761267858261
84.2997466514797
84.5385304821242
84.536130721949
84.337132122997
84.1262395672279
83.8242022466785
83.2190235915112
82.1903538963805
80.7689866733509
79.0189835284377
77.1375458459927
75.162721110697
73.0392183237297
70.7584340120841
68.3491554428258
65.8888335165135
63.4851514763297
61.3571278584454
59.7007088964322
58.6220564178159
58.3141152186329
58.8306046083028
60.110586123945
61.9665335454946
64.3592995370915
67.3077515709639
70.5344538220834
73.5976031630415
76.2739766566848
78.470878735012
80.1695444202568
81.4650175498617
82.5287359458542
83.4954571276499
84.4513281313806
85.5840324011918
86.9393378968257
87.4576840759002
86.7245155370008
85.1098972490819
82.7479721119414
80.2359399243262
78.4201535733323
77.6485224548343
77.9316892596296
79.1765938503931
80.6657902268553
81.4395995325512
81.3497863515783
81.0256163131955
80.8672980237498
80.7672671685952
80.5291137237319
79.9703420287528
79.0553619980951
77.8490451053261
76.7499813632021
76.1006480637567
75.4490063520711
74.8424516365182
74.776840357835
74.6517816146214
74.4837663335774
74.7290182536169
75.0462780796016
75.7312586554411
76.0720397868713
76.1195118247937
76.9317425775702
77.059459627594
75.7528201578695
