900
3999.43349933624
648.556783676147
1
128
8
99.2783889011185
99.2050347264369
99.2216957151754
99.2365786072041
99.1929190896725
99.29841697539
99.3734799880639
99.306476206127
99.2740365190706
99.2846240908235
99.3075362905456
99.3302624082202
99.3231912740068
99.2753645290821
99.2439220856848
99.274660237666
99.2606541803988
99.2370804985594
99.2827086157317
99.3478509922116
99.3424044212768
99.3083710010207
99.308831603537
99.3025568371539
99.2615775964577
99.2680298802075
99.4098975639473
99.4651603986425
99.3724187072355
99.344098004231
99.327605209548
99.2944401810662
99.3351460894138
99.3650066391854
99.4092023348333
99.4873194570846
99.4307630306449
99.3284504981655
99.361674346256
99.480106912538
99.3971133292667
99.3095713015669
99.3046882747882
99.4088290326252
99.4965907155325
99.4029769826936
99.3324637033832
99.3879499251682
99.4245730113056
99.4045555305379
99.3528225881608
99.3408208069579
99.3838104024919
99.4519090047571
99.4551185937444
99.3349096740017
99.2851183198406
99.3074681555138
99.3005999619175
99.3022309115946
99.3495879226238
99.3784909804421
99.3899944653719
99.3432503463323
99.292845382724
99.3307369758972
99.376073329731
99.465584598654
99.5110240464602
99.4255796614493
99.3594693731654
99.3880345228153
99.4128591025462
99.3173024743476
99.2209364581346
99.1079331128736
98.949289149693
98.8562323098884
98.6256499306659
98.1248442934606
97.4728814598135
96.805081663831
96.4114894731629
96.6611195281915
96.9813729548385
97.0461450000758
97.2127504315577
97.4604790676189
97.4924099392936
97.2670208573513
96.9738743517249
96.6835392656786
96.3950539441139
96.2242928458162
96.3516970368589
96.3273214965097
96.1111200108012
95.8951402380331
95.6877730692398
95.711022359073
95.6033542746142
95.073646372511
94.736058674274
94.7987859319931
94.9568530323115
95.0581846817682
94.9004718830091
94.6144025552832
94.5120544012394
94.4771517299354
94.3866087036191
94.318012406222
94.0903801001742
93.8998381395225
93.7566715341547
93.6246956502087
93.741307912641
93.6282987632586
93.3216563681268
93.1596394076587
93.0083985696798
92.9296218981594
92.8635872529728
92.613970155806
92.5035697411447
92.3807708156416
92.0436962295033
91.8930965620163
91.8284255629848
91.6767382418283
91.5912226906197
91.4986283805851
91.3524711829712
91.2550931156927
91.1496740415907
91.0489953886693
90.9258463410763
90.6271145629889
90.4448890464384
90.4538199474443
90.3979760558926
90.314982765955
90.2018738657634
90.0226908753887
89.9257973183221
89.8577987755608
89.6223906810684
89.4470005031578
89.4433489507237
89.4109018551003
89.2812863436468
89.1385924905201
89.1072318136272
88.9988146240001
88.8496852246077
88.8917137725637
88.9485844959039
88.8944305828599
88.828443890597
88.8339739355214
88.742161512323
88.6937253706619
88.8862992285718
88.9656641313675
88.8640838797357
88.8031001512197
88.7844048736893
88.8243982379051
88.8814023240652
88.9600738105953
89.0741537723745
89.145965710154
89.2191162194924
89.2583717033523
89.3099631593055
89.4083611489291
89.3963935827543
89.4030442769142
89.5717743458531
89.7203069262262
89.758153846217
89.8604122014763
89.9915512481976
90.0468080990429
90.0477744360023
90.1327473171822
90.2675416231173
90.3468003003083
90.3960397468285
90.4692886394045
90.5355321276745
90.6119372932925
90.7439515435305
90.7935979196346
90.7515887032706
90.8127342515747
90.9184744771542
91.0158176766552
91.1006710795569
91.1459502912588
91.1571854116078
91.2302206456911
91.3434116258471
91.4127891793579
91.4819776175995
91.5340288008245
91.5850137963767
91.6706662636551
91.7582034355482
91.8582754247593
91.9493357354586
92.0361014248667
92.1882534596126
92.2819737781608
92.3254860338648
92.4945252173457
92.6358341333595
92.73010738723
92.8479730337089
93.0174147375309
93.11643851987
93.1613301526722
93.2802402547274
93.4478188701095
93.5800524822607
93.723541609771
93.8337260168022
93.9040122500476
93.9857190316262
94.0962952671455
94.1836405339006
94.2582867128155
94.3628783441729
94.5233229560958
94.6234431616705
94.655872516649
94.7317609224746
94.8724613510873
95.0052682630601
95.0423284004895
95.0929268229404
95.1979251128383
95.2805045590259
95.3587845536597
95.437444537717
95.498253643948
95.5834370721022
95.6735104548694
95.7611859470415
95.8175578894753
95.8178740597511
95.9022780797484
95.9975634250966
96.0717781295813
96.1479355280935
96.1558643208878
96.2319203877013
96.3002988921418
96.2797308042856
96.3314958016981
96.4166391051157
96.4482435495252
96.4746022776616
96.5257970830719
96.562261535504
96.5851470922382
96.6612453613968
96.7101293443037
96.6817919567807
96.6468710114116
96.6677897272631
96.6789799639136
96.6466274786663
96.6260269898535
96.6092014618168
96.5914928646994
96.6081658478955
96.6159995040811
96.5657245685114
96.5427408321292
96.6094866732091
96.6517069525051
96.665953239587
96.6729723694323
96.6192824111163
96.5487674447403
96.5160943941806
96.4797735940166
96.4438002365475
96.442506757278
96.4369284597673
96.4323792983348
96.4863540529238
96.5344197949649
96.6100063017176
96.7015367387768
96.7362271405446
96.7610800179379
96.7861402031876
96.8608672052538
96.953160324716
97.0022031006066
97.0489857449413
97.1418958868699
97.2388439755605
97.3274747381296
97.4135192084883
97.4247705084393
97.4086345563107
97.540257126121
97.6871242215975
97.7222174347508
97.7644989782729
97.8153593406581
97.8134943984595
97.855420695381
97.9071520576289
97.9405595592414
97.9970639548475
98.0066240612889
97.9773201270021
97.992020667105
98.0421270885076
98.060256529977
98.0622672928585
98.0975641153122
98.1523054987881
98.1221220279224
98.0940062721421
98.1646687930259
98.2096870195075
98.2289103163154
98.2367571756845
98.2125658455959
98.2249531525197
98.2682806270966
98.2660624491031
98.2556214952435
98.2599740096928
98.2919668098714
98.3143749419897
98.2802760483848
98.2771190895005
98.3084299189859
98.3217445809314
98.3464647239938
98.3729775905745
98.3701027790925
98.3471354920889
98.3652802301638
98.4319758009591
98.4471984063247
98.4226505777806
98.3926843901881
98.3998691581429
98.4257709220146
98.4600392759876
98.4664976553199
98.4514955743195
98.4496955434672
98.4465734192756
98.4169312226889
98.4186818968176
98.4494681780314
98.4486542376829
98.462671319654
98.4684794665819
98.4843835324978
98.5387052888179
98.5478388997359
98.5622073413487
98.5868507352277
98.6042539958309
98.6116119419963
98.660916624753
98.6786198113241
98.6532335112131
98.7316646387843
98.7592054981631
98.7139180110451
98.7613027457936
98.8154017842181
98.8143026913834
98.7667010709924
98.7593771135757
98.7926636882703
98.8336893325752
98.8801922406057
98.8254459660429
98.7376394222574
98.777655912471
98.8139009391814
98.7757676614215
98.7876955509263
98.8280960509378
98.8340068453422
98.8668370315342
98.8526184161099
98.8503801074691
98.8946150980839
98.9275662945091
98.8802294964548
98.8603148859815
98.8865859599373
98.8485853747256
98.8489780762367
98.8944235471763
98.8967638368528
98.9045124233045
98.9091772089307
98.8835070192202
98.8538193506401
98.8830922268812
98.9028087327151
98.8249847686154
98.8317653819421
98.8586107697014
98.8173889266659
98.8452457849732
98.9118458293997
98.8781008501234
98.8897287274125
98.9756147179556
98.9952938398814
98.9719229261056
98.9199023184777
98.8861964798515
98.8677584841984
98.8829972058184
98.8907851756445
98.8863177797991
98.9082916567033
98.9167873317243
98.8904679262805
98.8843057628011
98.9055803778256
98.8851536566484
98.8300876431131
98.8595343896939
98.8849314011984
98.8257407235581
98.8096805700854
98.8322131483739
98.8085573029198
98.7518991635489
98.7527520243112
98.788194971928
98.7845393725827
98.7724851824064
98.7412656029608
98.7154712882746
98.7365538031161
98.7338714578921
98.749794233702
98.8049092256996
98.8103108641799
98.7798651355088
98.7558033542093
98.7691489364639
98.8163473658148
98.8273116519071
98.8633602069774
98.9085022253596
98.9385241879296
98.9637510673584
98.9733453418152
99.0415630506524
99.0982840777844
99.0941923586177
99.1315674129216
99.2557669162611
99.2072415569785
99.1873742091565
99.1920268799116
99.1506254809699
99.1509575928168
99.178816893183
99.2020504398814
99.2351458654656
99.4352734280364
99.584523774884
99.3658574816194
99.2635615440982
99.330796263461
99.3836028049427
99.5096838455452
99.50553518295
99.4378974889431
99.5352152789966
99.5099605620505
99.3518829202806
99.5012765053558
99.8951074092107
100.020417701253
99.8969453958093
99.8705773392191
99.8016546573881
99.6863328941
99.5069056873013
99.3646950552166
99.2594895806013
99.184820537414
99.1076018951918
99.0153730124985
99.0233370363244
99.0260669513075
98.9190989904633
98.8060276658941
98.9033145860834
98.9845369308949
98.9900901402895
99.0621062419672
99.023911227724
98.886658108677
98.7984399695232
98.9454705199986
99.098897911612
99.0698741361197
98.9163178606555
98.872826157438
98.9459655013413
99.0646329743671
99.2533638054869
99.2442981322594
99.2285849227621
99.4113469302873
99.3971413745485
99.3334491115975
99.470451998911
99.7095310505468
99.7706263094702
99.528876446096
99.4091772231919
99.4689660536056
99.4673818807642
99.5296729621005
99.5368561847981
99.4693342327054
99.2865299148418
99.3142186917417
99.3986771902082
99.3580670517196
99.275749351162
99.4496700593825
99.5972323787166
99.3338294892693
99.1046303297073
99.3426304596918
99.3592000898566
99.2689244964068
99.2513475822288
99.1919474925636
99.1485633902746
99.084783267297
99.0002339987647
98.9616518686551
98.9768800151593
99.0723646245385
99.0402233493401
98.9761369442083
98.9398676243392
98.9616402609844
99.0289733191182
99.0254341326086
98.9295177619431
98.9723239086679
99.0621761349055
98.9930121629535
98.9297169921481
98.937677286325
98.8827791173002
98.916424268921
98.9430635103985
98.9696213966558
98.9458247241813
98.9015778967229
98.9241618338454
98.8984000293626
98.8252879804232
98.8570718053224
98.8860703051768
98.9004017137371
98.8883893695442
98.8822506139643
98.8625398648521
98.8193933058024
98.7804067285891
98.8220297511057
98.8173760660082
98.7723907579412
98.7044374446695
98.6639212809203
98.6552659840698
98.6452509304535
98.5503807411434
98.4705476285139
98.3857327328461
98.3290764237561
98.1889675961472
97.9296106066339
97.5979566139782
97.1822740531993
96.7582121715295
96.511803149467
96.3965125132672
96.3216056455391
96.2513114559021
96.242056477636
96.3754015496479
96.56625124322
96.6729503912359
96.7826432096121
96.9312210246094
97.1610441987975
97.1252260256339
97.0939979458674
97.0086386389539
96.8254418764086
96.2089711447248
95.4160644903288
94.6294540418303
93.5355143261469
91.8023776659058
90.3680570905597
88.9296285050276
87.5025325734421
86.0507619829364
84.6059507701391
83.1481896656042
82.1160867999729
81.7119371740097
81.2212216667428
80.6827041870435
79.8101946103622
80.0908087609954
81.3933408015204
81.9680755555776
83.4929979060178
85.4450681723832
87.0727696309312
88.9107969756834
89.9162136152423
90.8648181645603
91.7700918545041
92.5101824309555
93.0846495982339
93.6481626324788
94.1488850641525
94.5820568765327
94.7801549554309
95.11155422165
95.5027388961756
95.8086123704682
96.0271416476776
96.0374337288331
96.3525308468496
96.7039856107141
96.6803745493207
96.6524876135774
96.6995383674937
97.0759827476101
97.1425377182231
97.1646440323539
97.2006163681341
97.2576223043965
97.3542892681085
97.3444368212662
97.1844583056531
97.0567961357311
97.3171350260602
97.4157765597625
97.4019475459242
97.4249687858659
97.3937057112384
97.4432511385216
97.3940373410323
97.2900415652144
97.1703156944666
97.1518903304948
97.0127823187018
96.8031791963711
96.5707148254897
96.437167427163
96.4288137462484
96.3795604751839
96.4445841681455
96.417008396226
96.2526626687136
96.0694173677144
95.8722347710136
95.7321553829856
95.6837225687758
95.7845658607754
95.9501671445579
95.9444338091469
95.9519942488041
96.019799231314
96.0814492235885
96.0970253456435
96.0090832501102
95.7655406328792
95.3742172199196
94.9294612558933
94.5634711007453
94.3926533601174
94.3465574267147
94.3438268419287
94.5880499757424
95.1557552898019
95.5163318135601
95.6788371983272
95.7382441478558
95.726763785615
95.6997954020527
95.6753132930741
95.5664722975202
95.4064474528734
95.2691467421213
95.1777681003976
95.1182773198557
95.0705284828443
94.9989015963287
94.8851218731339
94.6510633119476
94.0449347031815
92.6670956203481
90.3378253929314
87.4434127811123
84.3688588752785
81.4020968756295
79.242848066439
79.3236621717889
82.3292696492181
86.4021831160545
89.2374224191084
90.6857473114985
91.3055034479851
91.4854182564119
91.4842857190212
91.4676345725167
91.5172636534738
91.6727393911164
91.9628485353229
92.3601866599436
92.7646100145704
93.1331335288256
93.5010505790057
93.8305670103015
94.1154359887957
94.4445152430771
94.8462975098469
95.2642027399596
95.5816659246747
95.7109572301949
95.6489974979884
95.4281436610321
95.113940158021
94.6940969933646
94.1326241489151
93.4541976467934
92.7345378902491
92.130943350856
91.844691759066
91.8916466224785
92.0815014439469
92.2507273915607
92.3044057119144
92.1682467884732
91.8090873763903
91.2414733058904
90.5294925603359
89.717674013093
88.814195151213
87.9190296825954
87.2551658821859
86.9421959874697
86.7626882091322
86.4950843624129
86.1007679191953
85.5693300664669
84.8937507420015
84.1185338010145
83.2744029460165
82.4209995742499
81.6008047804708
80.8375747702658
80.1111824183289
79.3992844816881
78.7191364623027
78.0732170989542
77.4780816205916
76.959416283625
76.4145565912526
75.7380475829347
74.8380465184769
73.772237064762
72.7467123821694
72.176421260822
72.3275275167397
72.9607917730851
73.4746575774014
73.4217968744298
72.6588590326504
71.6064181696063
71.0058509363743
71.2237368462095
72.1299827200907
73.4852480925171
75.0620666684463
76.7524211518754
78.424509568784
80.0030855932057
81.5061018701377
82.9898922885941
84.4397371511364
85.7232495049909
86.6770355439114
87.2617318090403
87.4936332477704
87.45981971705
87.3951756241142
87.4806377644263
87.7161457473071
87.9595235062739
87.9332394484329
87.5473958241403
86.9218853153043
86.2169516116427
85.6825787228451
85.6328861350793
85.9675810140077
86.3103206053661
86.5459195266488
86.7128211011068
86.8066874147412
86.7160852069027
86.3280543155487
85.682045914692
84.8614383776752
83.9725433219004
83.0428941753331
82.0248359707866
80.9740454501212
79.8838458765209
78.6900064336306
77.5317138828591
76.5537448599938
75.7761029770282
75.2764991119087
75.1813492491173
75.4478878941353
76.1471781955091
77.3071502456882
78.7615862434737
80.3865670332033
82.157496307064
83.8348611335886
85.1428202637536
86.0468443284516
86.6628428134642
87.2090380541829
87.6896086122485
88.0109031104512
88.2233476404011
88.3613677789315
88.5220873499202
88.7052451768305
88.6355610902286
88.230902696419
87.3296741130297
85.9566642071727
84.8685296502196
84.4759360137556
84.5055183289358
85.0636270914919
85.9210437843278
86.2873875209587
86.2718524189043
86.2752713328834
86.2906079573418
86.2712435146161
86.1958561411352
85.8991381563343
85.4189262682433
84.7502005206434
83.9172612023522
83.1171243211291
82.3766727155135
82.0636953448266
82.1240977460158
82.0860698723562
81.7528176278488
81.294321062541
81.2035538811688
81.8792485567159
82.3270715653221
82.3859257051564
82.431969062248
82.3449419145615
81.8323206490895
