900
3999.43349933624
648.556783676147
1
128
8
98.3095141841432
98.2827169075934
98.3184134196151
98.3730674080533
98.3584232254351
98.3416711442
98.4053951460965
98.4216414864185
98.3318086277978
98.282086843764
98.3107083426949
98.3804989284909
98.3986263471385
98.3673514345045
98.323220802011
98.3742018691357
98.4036844884386
98.3443086775813
98.3811882694158
98.408283044817
98.3616980755949
98.3457624162602
98.4201554561614
98.4242322158522
98.2533479718177
98.1524094977671
98.3902855341349
98.5309901382737
98.3990378543173
98.3429670490061
98.3295032002319
98.3484387895812
98.4338760778431
98.3812132271924
98.344064344841
98.5044189803017
98.6200728297859
98.4841872301673
98.2281067967324
98.4121659892856
98.62179477051
98.4282165049288
98.2747659069543
98.4055332615961
98.584062992684
98.4951387580876
98.3699169787617
98.2996235381895
98.4413069316554
98.606586363469
98.5041768422349
98.3741151237313
98.3667364017524
98.4214580969663
98.501827060075
98.4918488679247
98.3921798817697
98.3274760828514
98.3531083259054
98.3824463103421
98.3060573670128
98.2430446332114
98.3633004374016
98.4722242244607
98.4614963062227
98.3689549279538
98.2916250497435
98.3504809131319
98.4283749257682
98.4274373217145
98.3442956178471
98.3903378853266
98.3477221361773
98.2106990626281
98.1811296501252
98.0889991040137
97.9018510458614
97.7429731851297
97.4524231127952
96.9551153638297
96.3054255728235
95.6394774232524
95.2158074004293
95.4585301863849
95.8119637436549
95.7595728353093
95.8741363357606
96.2033326318957
96.1799580140156
95.943510903045
95.6858468066883
95.395653673934
95.0639368083873
94.7604643663731
94.7948519673816
94.7535322230869
94.4183101409655
94.0457550402494
93.6664745957377
93.5498238931022
93.3764638025159
92.7668661102864
92.3162985032703
92.3064239774526
92.4137982073754
92.403531844189
92.2089976209233
91.9968404085538
91.8249965766284
91.6619447105411
91.5824787361993
91.5205508543308
91.3442577648661
91.051525859121
90.7410685037397
90.5148094277355
90.473370634459
90.3886123909991
90.0956323092881
89.9106139512071
89.7913669760402
89.5271094999972
89.3029710424965
89.1822998374837
89.0076545116248
88.7198409517632
88.4037764261258
88.280290707196
88.1176571586333
87.7865736698804
87.6081816034285
87.5579974216874
87.443780890637
87.2564340000485
87.0247556622587
86.7403798379774
86.4973560796572
86.3816669796796
86.2495920100513
86.0190731475165
85.8488842312588
85.7333719972875
85.5187376832783
85.3413479469463
85.1704726960343
84.937426507044
84.7786674293629
84.7126041312952
84.6067852913844
84.4793279540118
84.3523787285399
84.0963391616206
83.8190183767434
83.7323587835982
83.7407659717237
83.6481334177355
83.6005407360823
83.6311865107213
83.5742027846564
83.5410685885829
83.5541608312784
83.5063510804394
83.4179908234302
83.4081032234729
83.4332417288452
83.4886845839647
83.6033500368543
83.6164667727448
83.6132351953399
83.6239105588853
83.6237153991381
83.7761456731243
83.9572486412472
84.0764358685434
84.1036109946233
84.2079058246094
84.3762252826651
84.5436611753286
84.649449575323
84.7038885704636
84.7945443076498
84.9680521549333
85.136356393775
85.2408100472428
85.3608151545594
85.4916814590873
85.6235395443462
85.784289682432
85.9423815225759
86.0081547080588
86.0563745251182
86.1210598865118
86.1816706701574
86.3107556067941
86.4682428367463
86.5456710016501
86.5558759549934
86.6216631964708
86.740022982778
86.8216026419882
86.9260523290888
87.0947676215184
87.1667717078386
87.243718442859
87.3401909978636
87.4309133020695
87.556058190319
87.6962429125549
87.8437379609226
87.9588414968891
88.0411563683463
88.2256133218881
88.4120683524224
88.5482679556522
88.6774852628488
88.788550073926
88.9090224899905
89.1298747428392
89.2964196094911
89.4376513738187
89.6327666342032
89.7803407541195
89.8757541579711
90.0555358662571
90.2987571560059
90.4089233109521
90.4961049004378
90.6928162104259
90.8689528242809
90.9652115151335
91.0630643050469
91.195428594656
91.3735765782648
91.5636270145565
91.7382338999537
91.8920153693703
91.9426591912625
92.0146026197621
92.1504897911392
92.2905007451164
92.411190304592
92.449301593473
92.5664096404326
92.7728534662069
92.8328699197296
92.8737934508976
92.9982715705793
93.1080939489856
93.1712688806726
93.2857542500309
93.4033463356043
93.5226514303206
93.6014463089571
93.6661151258497
93.7676743311344
93.8826388646531
93.9540729392147
94.0230982282825
94.1009296151649
94.1606844113034
94.2484525474162
94.3743232152727
94.4346369770568
94.4282532531591
94.4842477474145
94.608403070511
94.646482253934
94.6846345947855
94.7963540820777
94.8477271578017
94.8369142694549
94.902574241083
95.0235507666587
95.055176223388
95.0504460477226
95.0919420764261
95.1133045208633
95.1514366869233
95.2242027255039
95.2645107341343
95.2844923933968
95.3685380162077
95.4496745503506
95.4606758020019
95.4629341262585
95.454846120357
95.5034480114499
95.564811022448
95.5520204977143
95.6082145158016
95.6548383368391
95.6649687633839
95.7135803040405
95.7317153950342
95.7409847721581
95.8127316716959
95.8546917814522
95.835812102402
95.8473427108761
95.8734003796923
95.9438468589414
96.0380759425924
96.0824290735904
96.077991689763
96.0920733186179
96.1008815390674
96.0956347368406
96.1307559402181
96.158884666525
96.1824425844681
96.1963931203377
96.2339197538129
96.2655562093293
96.2736561586755
96.2951229145961
96.316595902789
96.3769373417124
96.4060651930921
96.4070953441698
96.4075862527534
96.429444422177
96.4133242269561
96.4067941426473
96.4410282743101
96.4783545449306
96.4875560038824
96.4942518932704
96.5081801208724
96.5082329019527
96.5018342721368
96.5222526430414
96.5450492332694
96.5728026405425
96.578531646986
96.579628651198
96.5853925441863
96.607020808852
96.6331133426574
96.6527587678072
96.6446121735579
96.6214524088641
96.6366926427792
96.6511252595956
96.6721463717352
96.6852983701449
96.6949530528122
96.6839520186936
96.6668908294513
96.6876043975518
96.7383688500632
96.7200249039271
96.7134314011491
96.7522305842776
96.7463773663013
96.7532370661487
96.747434291717
96.7439471444852
96.7582043214298
96.7690338823949
96.7530119849132
96.7361713881845
96.7750694353449
96.8005937475455
96.7443836327429
96.7351204853716
96.7881392137415
96.8014384006469
96.7968108239284
96.8169568746229
96.8302095503876
96.8500986707264
96.8752718964223
96.8597848613634
96.8403231756674
96.8888780326157
96.9449329358119
96.9293541076057
96.9400712492039
96.9529506097395
96.9444413335027
97.0100527266937
97.0350575738634
97.008578894129
96.9879871624343
96.9650469110389
97.0145841359993
97.061280941344
97.0453889283419
97.0509845268633
97.0170134764838
97.0304394558669
97.0823622766327
97.0463069328222
97.0153111869334
97.0344101825627
97.043713774815
97.0790404031858
97.0796275831957
97.0460622413563
97.0817118294848
97.0803150950188
97.0507917914439
97.0355476003988
97.0534270012032
97.1352582050869
97.1244016876559
97.0653562218644
97.0397190053593
97.0729973900446
97.1068694469997
97.0786436167025
97.0574542031075
97.0840752790001
97.0488159897483
97.0040751588285
97.0490968096705
97.1046878121305
97.0966938530464
97.0428495249723
97.049029171632
97.0973501758763
97.1322352029931
97.0892894755288
97.0206676312415
97.0576603413954
97.065948402671
97.0478334323885
97.0510574269644
97.0705635097461
97.0493235881398
97.0218722728553
97.0534090433087
97.0533068029152
97.0277751395158
96.9850271450447
96.9332475297623
96.9179397696438
96.9261553455133
96.9436080203281
96.9126954341224
96.8587665213671
96.9437064964625
96.9575719903759
96.8169708092209
96.7236607604041
96.8183433870652
96.8864607285029
96.8824565840193
96.8542984814773
96.7563900742219
96.7258276204227
96.8411075517637
96.9200868951284
96.9481479784889
96.9391919219808
96.8682130602499
96.8545108167814
96.9136938377756
96.9223151228495
96.9144306002836
96.9897941024994
96.9895618767175
96.9752693754277
97.0813750190424
97.133435242299
97.1443374319272
97.1082495143211
97.0877474992343
97.1153100428228
97.1340729309667
97.1811018295329
97.2545422931886
97.2973498338701
97.3318754777205
97.3516563001191
97.4011910344873
97.4481230427193
97.2689672580727
97.3288641246259
97.5687658961333
97.4419931506187
97.4265031302758
97.5273634003474
97.6099141794929
97.6532988741584
97.5277705483615
97.7027598010031
97.7687546160371
97.6357994218132
97.7326602691105
97.7989998004584
97.6621538987189
97.6204760205546
97.9889686237377
98.3998111986453
98.3983506035821
98.0229158941418
97.5943342998778
97.5279918622121
97.6907774242996
97.5856948391399
97.3313349720354
97.1870687400463
97.0865406572495
97.037882710337
97.0287394957502
96.9727842281769
96.9544507985112
97.0096665739351
96.9645672298322
96.9494413190789
97.0918403226628
97.1500780641535
97.053183802586
97.0081352965919
97.0180136459164
96.9943073739949
97.0350137256877
97.1921689534065
97.3188325445762
97.2760614575817
97.194677917409
97.2684983341802
97.3906947528831
97.4357823413986
97.6258709679382
97.7171912183452
97.8685915469526
98.0710565128314
97.9506963588228
97.944784827963
97.8748284755659
97.7149462812659
97.8256135890186
97.9779009406044
97.9784370634517
97.7847961403313
97.5763721315208
97.5922139074671
97.6318427759289
97.7541677828779
97.8499471782514
97.7234596196218
97.8011505005623
98.0324859421436
98.0011655993762
97.8340016170266
97.7820848358861
97.6690844589404
97.3906311799283
97.2954676896808
97.4292055611498
97.3424549046393
97.2042416940359
97.2448172211702
97.2609701936001
97.2078449255186
97.2098549541383
97.2273706044401
97.2424840142482
97.2181616789072
97.1435853119055
97.0761256537283
97.1384029340876
97.1691090261288
97.0860090763467
97.116583134444
97.1280645156517
97.0877373402536
97.1195953658549
97.1158274143462
97.1117263763071
97.1458013623434
97.1313879064401
97.1133416801484
97.094937502693
97.0820197680784
97.066671312595
97.063727961201
97.1282138975686
97.1382797160426
97.1153020275592
97.0864643817449
97.0866869081458
97.0897939490706
97.1059472144393
97.1086268527629
97.061252001519
97.0392882421421
97.0213702335019
97.0198305587974
97.0264531539334
97.0536272502771
97.0910255974385
97.0155061756642
97.0104444275707
97.0168880601908
96.9763722913365
97.0512141201557
97.029770489357
96.9505349760012
96.9234039326066
96.8461600558047
96.7744257263494
96.8106632279758
96.7982358714353
96.7167414655001
96.6395382360691
96.6677122874171
96.6463168355847
96.5278651715893
96.4042360233956
96.3299709635412
96.3713778109087
96.2076793003888
96.0050144582526
95.8290331696759
95.7119992633344
95.5394640294027
95.2299078679945
94.8705620199466
94.6155736968274
94.3222166629534
93.9025270669021
93.4449672244421
93.0254467879697
92.5669655923061
92.0531151636604
91.4984636447236
90.9746192476472
90.7141649001126
90.472628445498
90.1440810644552
89.7096911915853
89.5506394676649
89.7985335769018
89.8052262014051
90.0549292925181
90.509933047751
91.0244201407394
91.7336102526344
92.1359431159012
92.5607219760366
93.0015334355877
93.3676338816747
93.6649599960892
93.9287756906764
94.1175047317147
94.3480434054687
94.4386022362384
94.6226365654049
94.8492557207662
94.9710674279892
95.0308848336017
94.8755792938933
95.1659923496426
95.4807862518229
95.4375300100346
95.3264003197621
95.2611848905004
95.7158506801107
95.7686990302877
95.7140042413296
95.6694242924145
95.6431577298861
95.8288041956996
95.9787408791242
95.9002745342966
95.7639839753867
96.0698588941627
96.095951422006
96.021641386875
96.125499119604
96.1204951927935
96.2569924127061
96.2689079967216
96.2106122341597
96.1783281759122
96.3692611107127
96.4172143033561
96.3572556973508
96.2899851888568
96.3709865631681
96.5390003535587
96.4710816162373
96.5168286232912
96.5406797570044
96.5257460319247
96.6201851007471
96.6201432328471
96.5865003517236
96.5274146286359
96.513190498315
96.638218728599
96.6305525873299
96.5993507053777
96.6117837903677
96.6070758639937
96.6149560026582
96.6733955089284
96.6257892330311
96.5663387576182
96.5658540587092
96.5482942246974
96.5681110952655
96.6264042539054
96.6111968911069
96.6107232719861
96.6858974822905
96.7075813581873
96.7107888248564
96.7333317142617
96.7341984624499
96.7201534213244
96.7548107854914
96.770718595596
96.7473868108258
96.7470332531781
96.7638698181365
96.7713160819463
96.7654998052383
96.7586652777463
96.7659520516161
96.7436937671997
96.7046507313403
96.6372617071027
96.5038134172718
96.3587022256058
96.2000302544192
96.049115619741
95.9619292576926
95.9970527979853
96.1827049877007
96.3879504188823
96.5001403779316
96.5433310071697
96.568903747524
96.5639112516595
96.5395381794731
96.5150719051343
96.5105415067035
96.4955511726832
96.4712767821639
96.4725639441535
96.4717117837363
96.463058734029
96.465003747875
96.439357239614
96.3808355097215
96.3108004447818
96.2427029151934
96.1734938099425
96.0735123016659
95.9571144164439
95.8380847142941
95.6837425152434
95.5261610501982
95.3824213613043
95.2143149833454
94.9944931290978
94.7147755068079
94.4825179317979
94.40827649727
94.3371614101822
94.1485689016888
93.8990656816545
93.6278230503049
93.356948402491
93.0764820636813
92.7668934205049
92.3774004605109
91.8229676428111
91.0454280645663
90.1159256796567
89.3517976905257
89.0303062044494
88.8993227022738
88.6026233683122
88.164611386533
87.725217111316
87.3771729842872
87.0983225467859
86.8717538496274
86.6800424742744
86.4248743808636
86.1193191025547
85.7192115884851
85.1147239393026
84.2976539773374
83.2912983136839
82.1005196895188
80.7976046879553
79.4123908227833
77.9244469931117
76.3099160455113
74.6005442635352
72.8459041813485
71.4480926921887
70.8404356001445
70.8938242108035
71.0283025027856
70.6671854438891
69.5017815738066
67.8253274368764
66.265640360754
65.3060683238272
64.9727931554848
65.1199528862124
65.5404097424057
66.16417375491
66.9536013523918
67.8907589635402
68.907120133799
69.9818622264573
71.0570097171654
72.1383116632517
73.1865428161845
74.1334611574416
74.9039747105499
75.3936341751757
75.5308662512079
75.4279337212114
75.3358461071599
75.442784820933
75.6253639799832
75.5936791421725
75.106241272224
74.068860035665
72.5990509306443
71.4348825251771
71.3074730043686
72.0785263853372
73.129752536349
74.189982869696
75.2058479784753
76.1353728733424
76.8557545285509
77.3596778687654
77.8110323935091
78.3227318233738
78.9092744492634
79.5588345027924
80.1846913887034
80.8243865617601
81.4247474624066
81.9802006006178
82.5038753183303
82.9617489170279
83.3270411918703
83.681205621924
84.0215545509098
84.280953739124
84.5631992689119
84.8700333777146
85.1047228108822
85.2778925300799
85.1898183252143
84.6705731806414
83.8347661848351
82.9646061422369
82.4173039969467
82.2182848355448
82.0779238864947
81.8686315502092
81.6044770374753
81.5043749875929
81.661472791985
81.6742523942659
81.6230078722291
81.5155308700043
81.1894921298943
80.8773053522171
80.6029424676787
80.4368106631526
80.4755818902046
80.5995388756072
80.8023417691497
81.0915882674027
81.3289663294781
81.5211858876982
81.7631471682991
82.0176930624192
82.3012350400548
82.2786973749665
81.8850954403124
81.3660734839866
80.2516651622548
79.1464735949792
78.7323705140845
78.3924015352543
78.2275820997329
78.2933496573628
78.0648349098294
77.6609317005204
77.6700478764605
78.1633966534948
78.2549333097125
77.3126615263092
76.8857769535585
77.8272698261136
