900
3999.43349933624
648.556783676147
1
128
8
97.9331924895978
97.8298997495644
97.7700722380821
97.8113369644221
97.8251974398252
97.7646450684863
97.8244034418035
97.8582203024983
97.83113506518
97.829636369521
97.8153439321169
97.8389085546736
97.8539310138882
97.8737664599712
97.9266735537271
97.914174612429
97.896863161887
97.8466363475191
97.8307503321626
97.908701234142
97.9296193002546
97.8869075536343
97.9160301750604
97.9008290942521
97.8655745330242
97.8640925555063
97.9567576043962
97.9640742258815
97.9724724992088
97.9862165250832
97.9582440510612
97.9972236295941
97.9721997190558
97.8814980088552
97.9301345153641
98.0138344605855
98.0428154822534
98.0170762992099
98.009773545315
98.1384861319683
98.0588256957199
97.9310115192675
97.9345685116262
98.0753373197488
98.1362067392955
98.0727484722912
98.0604363985747
98.061382573907
98.0814555262853
98.1451037583944
98.0985455993221
97.9741584231269
97.9561578667657
98.0926078464711
98.1451027194561
97.9741443572062
97.9413021062984
98.0395166108941
98.0662969533982
98.053150411254
98.0638728676333
98.0955531482064
98.1225168443539
98.093647015343
98.1105336280377
98.1524063313035
98.2003842452441
98.3019606051144
98.3087478289028
98.2385615211801
98.1067909731965
98.1247427302078
98.1772106795004
98.1037332695528
97.9963038558267
97.9360568478022
97.8909687361247
97.7615155319278
97.422774838181
97.0347798086297
96.55470035444
96.0013978197358
95.6805071806129
95.842023945959
96.1210353114921
96.2248131244958
96.3387963831145
96.3853807852233
96.2724938170098
96.134773065059
95.9536785271405
95.7162795206197
95.547148958592
95.4982218995497
95.5926315743488
95.4817205894431
95.2577487663641
95.1396668219207
95.1457365761882
95.1049290072503
94.914912928597
94.5963455762166
94.3066054860558
94.3476416387419
94.4811616346949
94.4724498724262
94.4450176212018
94.3957203385577
94.3462220851443
94.3468867399577
94.2981989193381
94.0968539237432
93.9500477065485
93.9060829799454
93.7615801698048
93.6055889751663
93.6743135144798
93.7136450508215
93.4943946857424
93.3019659625974
93.2847790569671
93.2158812062345
93.1012359261193
92.9605085689731
92.7714653616456
92.6773834639698
92.6623641668933
92.5320161129015
92.3245483503663
92.2594010798927
92.1419739633084
91.9013707994406
91.8849573496447
91.9166623105343
91.861325729562
91.7924357402733
91.6303380450454
91.5444286350229
91.3810992126067
91.157204536257
91.1414582137039
91.0951499032111
90.8893106023051
90.7519851802712
90.7501240296768
90.6867481675735
90.5466785232781
90.5286213821838
90.5165880919874
90.3934304270867
90.3020291371653
90.178676162977
90.0716669516313
90.0376720710574
89.9938481913323
89.9383545392935
89.9338563012642
89.9508727018969
89.8766457032347
89.8736818554399
89.9483791617425
89.9884107337117
89.9895183905071
89.9397846253154
89.9376499574557
89.9791798914514
89.9741826787569
90.0051494379219
90.0295225209446
90.0979460781475
90.1549937848159
90.1875052961692
90.2208654048887
90.2579768768494
90.3951774000274
90.5151912767975
90.5111022795826
90.6197972922686
90.7442235466676
90.7383292841462
90.7564959055248
90.8776091053175
91.0038494135706
91.0473830685891
90.9718799501565
90.9630917990224
91.1011103329681
91.2105521457641
91.259350458141
91.3963718195715
91.5024856648151
91.5333433572861
91.5690555512958
91.5663705073132
91.5739394768504
91.6924994063838
91.810272920227
91.8521508293358
91.8868344148263
91.9378170308265
91.9864329203701
92.0669617200326
92.1315842584821
92.2175949523151
92.2447070122911
92.258451784023
92.3498393859136
92.4340229996492
92.4635000719036
92.5427607943727
92.6745247329329
92.7600272085051
92.789412116702
92.9131108817217
93.0253847120502
93.0653350113303
93.1678857174279
93.2864876936721
93.3352416445993
93.4070929237864
93.5041048529675
93.6367796145907
93.6982829370248
93.748697309336
93.8454683913351
93.9436702853961
93.9638858827055
94.033704419711
94.2208887829894
94.3314647921568
94.3848591150149
94.4328053572046
94.4973964987631
94.552169396831
94.5878950320572
94.6712186541681
94.7905370436152
94.8739497306767
94.919098377925
94.993017526654
95.0561193881308
95.090739897327
95.1233221095338
95.190892987784
95.2906308971582
95.3352684231212
95.3498017747893
95.3976038319462
95.4850522508594
95.5712710565806
95.6042856946823
95.593482723104
95.6354081528924
95.7323173854995
95.7740519859585
95.7841417101992
95.8288932319492
95.8909586353387
95.8687146900533
95.8804913382029
95.9828758389786
96.0522837910212
96.0355800698006
96.021548997868
96.0668053378538
96.1192228907617
96.1137959808491
96.1016374179276
96.1378045311312
96.1563522557988
96.1213948140167
96.1047481076079
96.1155330600903
96.0713278989086
96.0203944404182
96.036766764578
96.0389557342355
96.0056330767202
96.0238422484063
96.042690453597
96.0456438812471
96.0517501687821
96.0600834809087
96.0206045954687
96.0214580689566
96.065705391785
95.9898766970022
95.9289919431469
95.95408324337
95.8949488501691
95.8567980070821
95.9248209729523
95.9754067580026
95.9743720973252
95.9828385269617
96.0374018688313
96.0739233004979
96.1092176105051
96.1736224388007
96.2258009102849
96.2513862653186
96.2923438516106
96.385365422585
96.4946752522931
96.5488235707204
96.6321273039475
96.7312538756188
96.7861055298472
96.7971491183681
96.8499579144047
96.9223867859434
96.9524437984015
96.9771269722944
97.0397527208968
97.1081411456526
97.1329446887944
97.1327500039903
97.1318128768808
97.1712758465977
97.2110398363753
97.2194849783502
97.2222320176806
97.2434090089067
97.2615451148049
97.2817767776507
97.3159079670924
97.3396716249125
97.3337462811757
97.3499890307387
97.4038175494197
97.4210770629546
97.4062283833118
97.411891422654
97.4160693144999
97.4175929343985
97.4558884901655
97.4776922339293
97.4855847409717
97.5063611812273
97.5043683226221
97.4783767192795
97.4646464818937
97.4845257436977
97.5079594109304
97.5271774268715
97.559308219379
97.5776410263978
97.5845888854836
97.5967542813642
97.6086356428929
97.6017006728946
97.6076292279316
97.6215445767757
97.6182573432728
97.6125324006334
97.6551321589873
97.68465927419
97.6765302981322
97.6948243246277
97.6755601036243
97.6417891743525
97.6569985314669
97.6702937772879
97.667310119103
97.6895756934776
97.7222001510564
97.7534630471283
97.7756358542068
97.7791808319605
97.8154160887848
97.8757524518546
97.8837689786479
97.8555741659666
97.8588784795168
97.90605913474
97.9704591826659
98.0326252482186
98.0370787135796
97.9781297572911
98.0090142811197
98.1269748812322
98.1868194407985
98.1644635699074
98.1825485933651
98.1738898954271
98.1037596391139
98.1077076962042
98.1390044522329
98.0896025873162
98.0395831066429
98.0009933330467
97.9721248741034
98.0267137963689
98.1103840249016
98.0798132303015
98.073822217623
98.1272688719134
98.1350047219016
98.1090249527987
98.1646770417722
98.2426962195712
98.219678624497
98.1692612206936
98.1811449791806
98.2271525558094
98.2162580810915
98.2087325599499
98.2299198218665
98.2471229795231
98.2714992718825
98.2618766055687
98.2329471901661
98.2176444361135
98.2199596501144
98.2143239949544
98.227041341395
98.2773876863367
98.3014069653032
98.2963133101991
98.2870396508483
98.2953602575671
98.3003404547992
98.3116789015964
98.2990292281519
98.2950162833845
98.2958547402851
98.2972225864559
98.2962763505869
98.2924802000573
98.2716515153634
98.2792022537676
98.3223447368563
98.3075791446748
98.2568324717003
98.2655514748988
98.2809990799957
98.2836079265858
98.3014615178978
98.3189961734606
98.2889018681951
98.2783649655697
98.2550429765866
98.2005903737895
98.1836689802598
98.2356232908012
98.2310758253916
98.2219245338716
98.306701330288
98.3047359370557
98.1983652510245
98.200137024519
98.2741496033766
98.2363168697627
98.2322879906868
98.3114695677947
98.3503059935828
98.3266070651515
98.3031410262154
98.2989594568215
98.3395594217193
98.4122374000499
98.4799933973281
98.5444268448319
98.5933442931718
98.5927973649196
98.6032638614352
98.6219205659075
98.6408583096034
98.6973652162946
98.6976736771525
98.7145135075451
98.7475894919845
98.8018361089725
98.8680060353468
98.7042432751426
98.666773158326
98.9993940525141
99.1413187381332
99.0136269593575
98.996981069816
99.0715414747124
99.0361603080754
99.1426942431432
99.3731380911997
99.3320012642127
99.1775617632666
99.1916493248317
99.2601990401788
99.3369620487326
99.4372467361378
99.5897815450123
99.7198420234466
99.6657806041481
99.6759629865611
99.8431500512669
99.6386704076741
99.3053368839061
99.0881932412124
99.0964696725762
99.0744536441032
98.8976552909226
98.8492513053565
98.9158315135164
98.8959117182017
98.7489670258427
98.5688259582393
98.6058503797618
98.7165075949713
98.6447937203696
98.5952441430971
98.7167263277641
98.8003311570303
98.6680775679145
98.5625954446967
98.6189500372155
98.6819009708511
98.6516044736639
98.6734200770444
98.7554556939885
98.7311459603615
98.7437158480253
98.9459088326172
99.0893643052466
99.0445348892147
98.9788192941814
99.1135628554856
99.2797142284178
99.2594596415387
99.1419171263197
99.1467665695536
99.2097838955435
99.4378808968191
99.5781106984873
99.5038767220451
99.4267644239511
99.3083483071597
99.111911350412
99.2591094171639
99.3024250961038
98.9252744944846
98.9525851948382
99.2219323070033
99.2193921627314
99.3709081660826
99.441014911295
99.270741499509
99.144778481043
99.147747752452
99.08923903602
99.0169831759783
99.1031000547739
99.104949406572
98.9219157019705
98.8150216168448
98.8022616830291
98.7950683901248
98.78007923485
98.9196919372338
98.8847487968356
98.8085914996009
98.7960250340543
98.7648616355379
98.7938636683596
98.8136331519932
98.7744913217887
98.8464854685417
98.8039705554306
98.7188689060097
98.7152246861067
98.7595633976172
98.7856864060104
98.7805602114214
98.7533304692196
98.7511411782349
98.8171957883017
98.8591694546469
98.7738013349484
98.7605755448951
98.744379567918
98.7530590696292
98.7640578061074
98.7385929358084
98.7219690642897
98.7002283463771
98.6572019277111
98.6311814426258
98.6102402170354
98.6314538241348
98.6049491574139
98.5938869362336
98.5836107079461
98.5805751647638
98.5214029183088
98.4285347790893
98.364859768977
98.3225347218175
98.244451921575
98.1776914813782
97.9519738654183
97.6216002170948
97.1686058686173
96.5894715127787
96.1152677739475
95.8581823620029
95.7297745960636
95.6491482681119
95.5716589396891
95.5726931919228
95.7821771227434
96.0395288149358
96.2506449938906
96.4843818319871
96.6780213037415
96.8801810465322
96.9362312412347
96.9386967391023
96.8284648693343
96.6227211702412
95.9564557894684
95.0138918573465
93.9689092529219
92.0901010877186
89.4539657384118
87.4879365037606
85.2859477381875
82.8896930307211
80.7477775668976
78.6699768901413
76.7243866712466
75.1129219948208
74.0646921841023
73.5049343327575
73.1529401808516
72.5478269369631
73.5029934508005
76.2485712024391
78.3150242669703
81.6028255006425
85.1161522459628
87.684979889348
89.9276495006462
91.1280486610603
92.1816260073585
93.0985839606906
93.8696970251454
94.48079829522
95.0012366517094
95.3551572929231
95.6766746746006
95.8811215082539
96.1450690098608
96.3787123163395
96.5798648804615
96.694867041856
96.7415439970062
96.920109514668
97.0535610428071
97.0876361687466
97.1755052242797
97.1920116832054
97.3314744387064
97.3762805712188
97.3884229294822
97.4161318163776
97.4970465523281
97.5754668600494
97.4962536453457
97.3189818499937
97.2462496259858
97.4128289920162
97.4958185761875
97.4797850088827
97.5005620677387
97.4830601069939
97.4712733311989
97.4229735023936
97.3552633512413
97.258179497988
97.182343465345
97.0126318777896
96.7822619236027
96.5168159164815
96.2461770467309
96.1514172773878
96.1501114723915
96.2399784271141
96.2116194184231
96.0334625913714
95.7627157509792
95.522677804393
95.4132633519459
95.4190199125271
95.5463274015449
95.7326469394903
95.80585493022
95.8761811569778
95.9484507747468
95.9779529679195
95.9788506786186
95.8753773486851
95.5198948318661
94.9082412125263
94.3094068963023
93.8668392706726
93.6211706154073
93.5831204715368
93.6733301741944
94.070048130554
94.804437853638
95.2684202223154
95.4599206545544
95.4737281572326
95.3860677888424
95.2976266830588
95.1998482224168
95.0025532109577
94.7560993328431
94.5657876749754
94.4329057581402
94.3213729540181
94.2311043099707
94.1193448793202
93.9016210410257
93.4724990249087
92.4356814631876
90.0882791472486
86.152851502452
81.2355142427663
75.9430763897468
70.819807122411
67.20363925332
68.1910926655231
74.9953890714248
83.0204460261526
87.6095829081795
89.3302434758666
89.8407400897346
89.8986604958884
89.797596762743
89.7128267800031
89.7864735129844
90.0899379280075
90.5907702684835
91.156690338013
91.5818689387167
91.8260661838579
92.213349078733
92.8963593509481
93.563613682077
94.1526846115867
94.7550585058363
95.3146370629357
95.7040816936952
95.8292952773617
95.6867595975258
95.3634132431773
94.8840081750773
94.2008671362144
93.3217291162155
92.291682981936
91.226775312685
90.4016497694885
90.1110389342984
90.3541191838021
90.8201779318592
91.2006701666175
91.354214536128
91.1595745937629
90.5627304238804
89.6912065878017
88.7178702895318
87.6696868081406
86.573857258468
85.6111257088611
85.0053883803925
84.7582495153268
84.5611952030565
84.2128322865175
83.6493440728498
82.8085206634926
81.6717756823131
80.3239924652985
78.8785973283388
77.4518434991969
76.1005990270065
74.8815687930471
73.8225328476897
72.9292278142294
72.211864360108
71.6930275236207
71.3972860790014
71.2844101506372
71.1582127234156
70.798387219154
70.1023575351843
69.2458014476694
68.6054996834178
68.5959469059813
69.2259713399294
70.1759853706505
70.9513682618378
71.0896711439819
70.4809613750357
69.695007661471
69.5183987608906
70.2018966555296
71.5469493893084
73.3956195080299
75.5424207622886
77.7400869367045
79.7219477432317
81.4572887380957
83.0614997459987
84.6079541490775
86.0931251046165
87.3208852666459
88.0608600874379
88.3561118748848
88.390240612109
88.2732809234599
88.2164090501943
88.378583965385
88.600706071816
88.7096550314481
88.5603147768102
88.0749652171732
87.4169630986908
86.8008274035561
86.4220288100047
86.4058263932367
86.4664939724822
86.2695218007717
85.9763672359007
85.7750013523841
85.5084597061546
85.0192930780353
84.1501679458471
82.9111168001369
81.4920156418983
79.9582642458294
78.3209872609725
76.6109494351987
74.7754476004672
72.8178449420482
70.7749436972653
68.779183660641
66.9941012837521
65.597562712644
64.7450586920441
64.6761434512933
65.5045457342925
67.2203881959079
69.7516671162893
72.9614467213887
76.7155794110562
80.5818549060154
83.8837779372655
86.2622276442171
87.6516550063539
88.4846097959145
89.1028462510223
89.4465009035525
89.4455340554489
89.0031465420572
88.0434290092282
86.9739473069097
86.6354910669263
87.0792898792842
87.4905389894769
86.9146181906133
85.5032631170089
84.3395520786566
83.9621032536095
84.2977594959628
85.4358597450293
86.7554736469888
87.2150355931835
87.0017048782977
86.8925172576063
86.89591358583
86.8732632754481
86.7680191907468
86.3527313130461
85.5891539802358
84.5460720938324
83.5253890846186
82.7464087571514
82.1236578591056
81.9136230518289
81.7961653174216
81.350771129319
81.2192350407191
81.6510301923704
82.4887864996955
83.0740550996572
82.9977530374583
82.8462294291881
82.729193689393
83.5219428547477
84.3840667730827
