900
3999.43349933624
648.556783676147
1
128
8
97.6077364911425
97.604937457291
97.6259123779464
97.6762342103165
97.7099404406966
97.7014766161045
97.6856398677362
97.6756300891168
97.6327533843939
97.6225112609452
97.6794655545515
97.6883256794423
97.6766320188503
97.6547415989302
97.6416276900217
97.6743796608276
97.6946476936737
97.7189599667657
97.7158344320255
97.6577203223546
97.5745996105657
97.6101826150796
97.7315213576893
97.7254200055319
97.6002827683068
97.5177430815792
97.6771793284355
97.8025872541059
97.7250318420231
97.6943564760541
97.6921720449013
97.7705408442861
97.7840191953124
97.6144657485312
97.5889449699376
97.8525695702543
97.8675504216523
97.698585907877
97.5809590776641
97.7785714928949
97.8828961746648
97.7169769415728
97.6691480753701
97.7215634750375
97.7556204999798
97.775988653748
97.7533823678094
97.6797723663046
97.7315189820423
97.8796094544094
97.8487585820616
97.7056430568205
97.6278042839317
97.6800571033641
97.740147093557
97.6867422800369
97.6403359719437
97.6576186604618
97.6648789324355
97.6648418518948
97.6202130016461
97.6093358870234
97.6886620165739
97.6448486412022
97.5912982027011
97.5813844885798
97.5787604294413
97.7211807560322
97.8048329833826
97.7454547011106
97.6190826821591
97.6166626247791
97.5207150136975
97.3328274284002
97.2312789966114
97.0475181081252
96.8200450840155
96.5936563382291
96.0490347381666
95.2109649743399
94.0356970263739
92.7058347351185
91.8361590845518
92.2355575752237
93.0775311870869
93.217117625081
93.2951964748629
93.6744233730715
93.9502630224069
93.8469914460199
93.451001231656
92.9990669249263
92.5505299932533
92.1809778289567
92.348697076424
92.4142069546378
92.0814944348489
91.722464131426
91.3994865359515
91.200886156917
90.7600622079631
89.9460822569004
89.5483726315112
89.8009134690126
90.0739533412977
90.2455335406691
90.1639045598972
89.9177125350381
89.8355980233257
89.7718945558979
89.6588287016792
89.7542416551812
89.7062540586278
89.3901451973806
89.064951086523
88.9056800664056
88.8879395451289
88.8419001258385
88.7259405952014
88.4452634413296
88.1614104450052
88.1313546758215
87.9956783809269
87.690357253828
87.5329527034544
87.2360121518244
86.9293831453425
86.9210845001885
86.8399297447119
86.5677694265682
86.3517091054398
86.2286621076429
86.0794009216521
85.921200062429
85.7116708359556
85.4258048884562
85.2497702596
85.2048056363622
85.0696936899713
84.9035596782556
84.7709404687685
84.5424405163082
84.283416714445
84.1280579674001
84.0019431918869
83.8502781384169
83.6776609698906
83.4739409805629
83.2593254441818
83.1632206192638
83.122772420479
82.979738515901
82.8427103032685
82.7485994053179
82.6264583477754
82.6107564687914
82.6700717542553
82.6543329213869
82.5768402763787
82.503598931131
82.4379906814285
82.4162524044622
82.4062172381497
82.3643771124562
82.395626239129
82.4962439668306
82.5357616829061
82.5539523340569
82.5391028055193
82.5060342068238
82.5615447009717
82.7474259616987
82.912630275494
83.0282186691766
83.1219375872098
83.1844674299829
83.2415358886577
83.3794969616506
83.5766223049842
83.7096242536165
83.7970734025383
83.9043976556317
84.026984385962
84.1977768935735
84.3898079247458
84.4862559043856
84.4788451071572
84.5846524516058
84.7563626718837
84.8702261554536
84.9669211546342
85.0165712038518
85.090214725174
85.207312651769
85.3559669371607
85.5360130487217
85.5512843614809
85.5892779447978
85.7102637687279
85.8264646914038
85.9089930782765
85.9631275030848
86.0765719321102
86.1906407978903
86.2696199765339
86.3977592700976
86.5702983001204
86.6937310733241
86.7853305498821
86.9308881124413
87.0715248278791
87.1880385887359
87.3095012456344
87.5195448822903
87.6684821117392
87.7552926083671
87.9325053172193
88.1138544811824
88.3112799934456
88.5034019888062
88.6123903824479
88.7340391464844
88.9147394669525
89.1194670260924
89.2494974863256
89.4053220413979
89.6004000545267
89.7716182768159
89.8673580526543
89.9883013680882
90.1462294793349
90.3093798307039
90.4536181744942
90.6114753625379
90.774889138501
90.9016970203627
90.9904597218528
91.0875925365467
91.2057793804869
91.3761711435131
91.5181114258648
91.603754218186
91.7187603895899
91.8452399259558
91.9481255176078
92.0352166463773
92.1563897492478
92.2413298455618
92.3474203778418
92.4714982105375
92.5429873028841
92.6339946913215
92.7356954945189
92.8107218284424
92.9258690567322
93.0185628802629
93.074758316943
93.1054831500466
93.1944796862392
93.3362251856462
93.4374100457784
93.4965713416292
93.568350864205
93.6426679316301
93.665952848141
93.7440635250563
93.8350082709765
93.8836659202369
93.9539087734907
94.0378522712886
94.1100276768764
94.1502108535921
94.2051366325304
94.2409300901553
94.23650999866
94.2881841905892
94.3843973395488
94.4627677323056
94.5098446569863
94.5073866210573
94.5452444692059
94.5825202476349
94.5815478533627
94.6477328157625
94.6946506849359
94.7085511588199
94.7158994836643
94.7411868123628
94.7852352946475
94.7980551326089
94.8507138377016
94.88029766559
94.9014566667648
94.9875306287321
95.0312902088064
95.0386570274637
95.1016075820809
95.1369898015698
95.1331205857384
95.1526629632901
95.184827141874
95.2285837068688
95.2772512759489
95.2981834342161
95.3151481950379
95.3269654462396
95.3582051942924
95.4145308578138
95.4241073973248
95.4354148143049
95.4824449487226
95.5671438806445
95.599899513927
95.6069138558908
95.6370616968335
95.6743819676018
95.6814387457957
95.6798947689509
95.6773254909207
95.6903634856305
95.7227223539186
95.7498165236443
95.7848853772726
95.8081307123047
95.7912637378628
95.8027478566611
95.8496718645306
95.8799900627446
95.8957394577083
95.891371610837
95.8981370538879
95.928896951869
95.9436183996108
95.9290119147879
95.9481377497335
95.9706962927235
95.9936095182658
96.0329740211724
96.0316333688598
96.0242397846005
96.0121989541581
96.0224833999051
96.0467307306083
96.0467696798807
96.0715632476005
96.0991494670305
96.0916291140131
96.0955259179155
96.1243025536231
96.1496505444648
96.1613369125866
96.1858636995493
96.1852623219342
96.1768473599288
96.1696239212246
96.1753503862309
96.1991850640472
96.2306164828421
96.217885061291
96.1641476139438
96.1324172536615
96.107905002854
96.1055418827225
96.1269825606668
96.1367298155701
96.1249234930835
96.1444882135669
96.1912619434682
96.2049289106705
96.2516488144143
96.2802753180324
96.2607054294653
96.2840143355405
96.3216611908702
96.3341031662575
96.3537511128725
96.378648977367
96.3401157718247
96.3343289059721
96.3939862496088
96.4339653597007
96.4348612637098
96.4279945417497
96.4145790607563
96.4832032555312
96.5263988556972
96.50901861309
96.4877239787661
96.5185421475364
96.5747427964018
96.6002126626002
96.5465264567471
96.5435047358223
96.5638326464286
96.5912705757926
96.6284459064839
96.5922024797134
96.6092844468753
96.6698786016689
96.6061588887082
96.5679334852275
96.6454221719151
96.6635764524157
96.5837169159899
96.5996026170521
96.6375679173778
96.6037969384243
96.634124279334
96.6575600128537
96.6050548083015
96.5448147739219
96.5753409661477
96.6240674030401
96.6424448818151
96.6366185640373
96.5513450811468
96.506869364434
96.5801315976813
96.5880510810831
96.5885830668824
96.6509160050974
96.6708684485554
96.6486076651058
96.6123283829122
96.6187475174074
96.6566623561797
96.6988616644141
96.719319044749
96.6850848821395
96.6742853943334
96.692567885332
96.6118030049959
96.560940615947
96.6082490127987
96.6348213341752
96.5707110386392
96.508134812672
96.5290025984548
96.6291183861314
96.6961064308708
96.6841882716943
96.6900352393012
96.6543134581413
96.5086580743624
96.4361360660595
96.4823713915858
96.4652545550773
96.4658032026575
96.4728654415933
96.3275617891835
96.1973627692914
96.2838357052483
96.3985392414083
96.4336697207279
96.4493218302268
96.4322508778904
96.3763804616132
96.373540688196
96.3981716688625
96.3628957849525
96.3146217274328
96.369726820988
96.5173352811332
96.5837170235426
96.5394952008019
96.5995639254243
96.6997607577952
96.6187986908243
96.6038840199687
96.7794744984621
96.875194824251
96.7836222354448
96.6173901517021
96.6323000080284
96.8303626399021
96.9014047536913
96.8788028299224
96.8657437944468
96.8552608081611
96.8594653170772
96.8197880634556
96.7795521788041
96.9783189684183
97.1244111122394
96.9599755122145
97.0472074058577
97.1256747586797
96.9227348197522
96.9159031441006
97.0102272807059
97.1106416049591
97.1042749711581
96.9661577561467
97.3288693853754
98.1823395778403
98.2494575625364
97.7664216970485
97.3973403442664
97.3553015380902
97.3400808953337
97.2098099557174
97.143427829618
97.0152544791607
96.8057644976574
96.6464721416459
96.5115455489514
96.457280190587
96.5988011903594
96.6981225320133
96.5807072808595
96.5145767454578
96.6355228728764
96.6105926941253
96.4795119432933
96.4155329342896
96.440273185553
96.5853566232003
96.6731957451231
96.6447629988464
96.6443515428842
96.6775189547968
96.7080899232136
96.5950278252986
96.6103163607732
96.9699556133692
97.0060551132005
96.9579343741442
97.3475782079786
97.4887197472895
97.1378845920154
97.1386948765838
97.4002386525567
97.2012801692145
97.1149195314052
97.2251663516233
97.2303962702769
97.2062260533755
97.1179025579992
97.0556349435483
97.0362293841903
96.9521293704186
96.8898917762946
96.8707936443338
97.0426846291716
97.1181044156831
97.0812713765286
97.0946250472817
97.1125883252137
97.0719740252635
97.0083445748828
96.9485248968018
96.9861655174806
96.9579713888206
96.8352556216591
96.831149787959
96.8582482792255
96.8151812333342
96.6980340970887
96.6046231926183
96.7330081265401
96.8448941135091
96.7308564050862
96.5586105136604
96.545286258827
96.5941011565794
96.6058661770061
96.607696202447
96.6039881364458
96.5480850488437
96.5762643963267
96.5846158930103
96.5366076662051
96.57472168019
96.5415214814395
96.4622567009522
96.5179985050669
96.5369923472901
96.4882188715215
96.5707725895081
96.6111003210326
96.4716279224994
96.3954669120131
96.4499053797364
96.4625523643353
96.4317789907688
96.4887055449534
96.4702114965203
96.411218744737
96.4054062254148
96.3745697726363
96.3228378941224
96.2928540495539
96.3418715464863
96.3881348121233
96.3133882959396
96.261728722831
96.2028525183685
96.1528297013992
96.2624449871333
96.2413180215916
96.0980889952414
96.0753241702481
96.0138132584634
95.8916207053003
95.9111600991977
95.9372749431954
95.8491768016061
95.6703063341586
95.6914741717346
95.7446458932843
95.5589007800448
95.3246768886185
95.2005548052529
95.327933807408
95.1340251345038
94.7908517744104
94.5143730344777
94.4837556079751
94.3688993037692
93.9874331325915
93.5190856748268
93.2088942630758
92.953452846641
92.452258761488
91.9346641423953
91.608200425891
91.2335817896623
90.7551566126292
90.1648565126586
89.5267581033487
89.4157369250256
89.2999503060778
89.0238954660688
88.5291477895967
88.4032978726465
88.774722419581
88.7451414357164
88.9748391947912
89.3880170057692
89.8125085000736
90.5296531593234
90.9426900595465
91.3624414570258
91.8018984792886
92.1814258723494
92.5489273358725
92.9017564919932
93.1475209547314
93.3734001397288
93.476947239216
93.6606234032739
93.942422990262
94.1644574966505
94.2464840199523
94.0504535575975
94.4171106025393
94.7989091014906
94.6856968932964
94.5772697542339
94.5008592143445
94.9536262553278
95.0604803635074
95.0012732523711
94.9596910536342
94.9326654326827
95.0983664710013
95.2581265807259
95.1647968699253
94.9644320586051
95.3134382443834
95.3711917729197
95.2288087380092
95.2809878169658
95.2446768579643
95.3658550592941
95.3576809535145
95.2558166587667
95.1698752859046
95.2931883959997
95.3069842897042
95.222991061546
95.0936800594198
95.1286901158171
95.2761051131924
95.1480551042357
95.1260437308226
95.062022632629
94.9706673668299
95.0467603804486
95.0367273595282
94.9608265488558
94.8809919134456
94.8910749936634
95.0365572635776
94.9782214138196
94.9187460589143
94.928664242263
94.9254960388426
94.9269803457891
95.0133832362165
94.986617253433
94.9557712439354
94.9417233906178
94.8753622596316
94.8995658191722
94.9663069903746
94.94720985606
94.950982032193
95.051033408889
95.0670064446286
95.0616103287324
95.079830321053
95.087537968598
95.0996965113263
95.1619896358587
95.1685101564002
95.1169782946913
95.1128882638299
95.1280243412892
95.1372110476723
95.1330965514899
95.1330519794361
95.1403824099902
95.1295614262144
95.096186926968
95.0312986811555
94.9254858198085
94.796461653849
94.6752787453236
94.5835023691181
94.5519846480971
94.6064969018441
94.737978790313
94.8650592696372
94.9404044236808
94.9706455006752
94.9380002502001
94.8906217026787
94.860534448127
94.8309852626077
94.8010841721313
94.7752069426698
94.7564184817656
94.7462151346213
94.7295169983167
94.7461725612362
94.7468059545306
94.6456805451921
94.5262432644142
94.4259686415307
94.3376427106549
94.2401160310406
94.1195842971273
94.0000595312574
93.8596786614788
93.6744902170535
93.4878168284953
93.3000142954813
93.0803224928117
92.8326298802046
92.5514309820678
92.3039188041363
92.1666912994737
92.0331386222938
91.7789241989267
91.4780823681028
91.1692199180425
90.7969884711899
90.3495195984803
89.8261781812073
89.1860695679018
88.3450113844421
87.2104309970886
85.9169441534236
84.8545081540378
84.2661431669291
83.9180274445447
83.4979935022819
83.0265913112218
82.6300771556034
82.3214522031095
82.0973488685652
81.9260900592809
81.7520166189861
81.5046158683304
81.1794937675973
80.7571514235242
80.1689933256491
79.3702225307373
78.3538156028792
77.1219754988467
75.7278674080315
74.1808581144675
72.477640603888
70.6092217728101
68.6822430749125
66.8711073888371
65.6024627755193
65.2539219309066
65.5747108710593
65.7717999090218
65.2633661550694
63.9570996586011
62.3792364518222
61.3130470809789
61.0801029837732
61.4566009860595
62.2537086822433
63.2501886075146
64.3260395325469
65.4841829883219
66.7004045359751
67.907401299531
69.1254688212298
70.2908405245165
71.3905977134702
72.4276288577778
73.3175880386304
73.9346126982069
74.2676601311182
74.3000964655168
74.1825767933988
74.1617501665164
74.3024046711185
74.4109165380014
74.2257084592336
73.5502322351903
72.3049754318103
70.8684439795115
70.2649458729219
70.9152736198116
72.2152297586497
73.5735196281888
74.8424945878592
75.9678317636967
76.8953441304953
77.5956577848758
78.0936589763901
78.5538530081487
79.1285677325253
79.7869135287678
80.4344843118739
81.044220094819
81.6595962025842
82.231727583639
82.7088010632499
83.1303860713351
83.4757422727721
83.7146576882638
83.9185593791726
84.1035790599395
84.2814254381523
84.4729896844848
84.6087504806725
84.6325769058601
84.6387260415877
84.5078088273751
83.9631281848236
83.1005817838415
82.3750143626544
81.9539360773584
81.774658098668
81.7634581948368
81.7485202869616
81.6997328332553
81.9846985669614
82.2402057343358
81.9741394207532
81.6396533478587
81.404712147755
81.0867371987657
80.7246889196391
80.420688513329
80.2882346783139
80.52926861245
80.9411105934779
81.1609716313433
81.2774248931225
81.5407527063711
81.7906978495832
81.941346636542
82.1230043110075
82.0777057478821
81.7061168136577
81.0023984442283
79.9987183066985
78.9909361061003
78.1548317345658
77.7060868123771
77.6536227381796
77.6221783885944
77.310185884651
77.1787758492125
77.1740713871202
77.1417268275896
77.2541568164762
77.4324223567825
77.1164019874132
76.6087396577519
76.8699945909911
