900
3999.43349933624
648.556783676147
1
128
8
98.0845617289887
98.1148596297482
98.0692045339313
98.0928827336394
98.1174383440772
98.119776020005
98.1452249847606
98.1603543698886
98.1190969470951
98.0644740679744
98.0741158711569
98.118390787773
98.174851842638
98.1572431870785
98.1025153487893
98.1199186193626
98.199885553376
98.2340229640373
98.2221198887092
98.1657014665553
98.1113116957613
98.1442123475662
98.2381347527165
98.1938767524458
98.0987439851342
98.1253056072838
98.2336050266861
98.2617122623348
98.1608290912312
98.1357370280894
98.2249034134614
98.3151499234773
98.3775981757186
98.2911300080007
98.2232694792251
98.3241197461907
98.3351828622678
98.2643306560593
98.2259272722035
98.4073235650176
98.481345242192
98.32165239828
98.2643009921596
98.3995457182297
98.4534819862482
98.3540583586637
98.294197947616
98.327799587687
98.3565041884487
98.4079783556795
98.423703696825
98.3743367716566
98.4096468032062
98.5260313597826
98.466514687467
98.3720284297297
98.3317596513249
98.3104299424518
98.3554765655422
98.4100880192287
98.3501205941426
98.3389021151743
98.4452052743363
98.4379651691792
98.447313041728
98.4483341069051
98.4147250591726
98.6043535287473
98.7224192476703
98.6012395792422
98.5165946979839
98.664076939908
98.7071815495931
98.565958713484
98.4983157157401
98.3809010825134
98.1945509712582
98.05452926501
97.8215214623411
97.3800797572772
96.627866619557
95.7131087877533
95.0549028952768
95.0950976821502
95.5469108855767
95.6995753269092
95.7892958160857
95.9748457860782
96.0743423636106
95.9589749062785
95.7039934751233
95.4877153739954
95.2791808294793
95.1198472785729
95.174919285077
94.9994285404514
94.6959877649338
94.5110073354084
94.4027712264685
94.3702304063506
94.0591050221188
93.3806221546267
92.8914759461865
92.9025427015955
93.1451759574626
93.366363135355
93.2552734482161
93.0449074227308
93.0091281846761
92.9699195825529
92.9283659481537
92.9248875669597
92.7638864165908
92.5534951758101
92.3746725247041
92.2480979034083
92.2592196147139
92.1862375288485
92.0030264865197
91.8460799433231
91.7238747064192
91.5931129991826
91.4346105023237
91.303293076805
91.2024228877243
91.0466568951163
90.8112916590539
90.5753704719578
90.4070844052987
90.2778918904335
90.1586080428073
90.1019897908625
90.0593169914839
89.8680540705884
89.5645552705509
89.3782486347861
89.3545713756755
89.2826457849164
89.137144584924
88.966252985542
88.822951263403
88.7379995384406
88.5842506095929
88.3796135282136
88.2396183069489
88.0913651565776
87.8958648302024
87.8115685245556
87.6993910907538
87.5775439060573
87.5075027147077
87.3719833537821
87.2278836128642
87.0573743496263
86.8746034532938
86.8366746211164
86.8537138688051
86.814499028069
86.7025999888743
86.639423571211
86.6448315712985
86.6650977857382
86.6426330897
86.5608338233278
86.5310104054811
86.5532064985845
86.5463387958195
86.4894783168956
86.4829191043239
86.5360972671515
86.5665871280255
86.6091414005823
86.6694400504918
86.7211363955014
86.7366382431948
86.7888897222522
86.8516946265916
86.9483929388333
87.0102393732016
87.0605037888092
87.2064393104796
87.3251076015195
87.3478820708674
87.3724000056781
87.5090153774028
87.6632102507922
87.6521362629208
87.6607880948172
87.768121050962
87.8412607337497
87.9414688223123
88.0320502153852
88.0355878548379
88.0726073441571
88.1473436748736
88.241865511438
88.2624754715969
88.2560202377812
88.3473609951412
88.4281327690364
88.4854685404332
88.5775909800673
88.6131528142877
88.7030204260073
88.8393215432747
88.870400817069
88.9245810014133
88.9917522082903
89.0743155282879
89.1755666118916
89.2447958106269
89.3348990565902
89.4847485135796
89.6346200067778
89.6931474025882
89.7285453855934
89.8334049846251
90.0442697038891
90.1986316502864
90.2390529515061
90.3026718727479
90.4412838513725
90.603243166376
90.7302429087958
90.8464697147938
90.9831877692935
91.1164712890638
91.2038358147813
91.2437697622929
91.3515658105798
91.513790092619
91.6231450907862
91.7157263050256
91.8356219692052
91.9536341537437
92.0464426601288
92.1399526878818
92.240438326879
92.3460632926402
92.4226546170641
92.4717359078731
92.528507932928
92.6732122722413
92.801411765995
92.8784332402734
92.9582199749614
93.0225679193741
93.1054333630868
93.187099784395
93.2684049061718
93.3465466406417
93.41878473118
93.46548383425
93.5153574060511
93.6030629565909
93.704139754162
93.8085431633153
93.880240059573
93.9147539871385
93.9480361235256
94.0001204498003
94.0974582488354
94.1769107589213
94.2323197813902
94.2607272461138
94.2627148074336
94.3478166624351
94.4236201931431
94.4519337810217
94.5420857360214
94.5942386843294
94.5826608186394
94.6070761329356
94.6862361299053
94.7566536534013
94.7551079744771
94.7723934781346
94.833623215709
94.8545987667979
94.9218391242384
95.0039677974082
95.0492718331185
95.0816813175011
95.0350615830008
95.022761815509
95.0986106231521
95.1264434534446
95.1347317498123
95.167295822341
95.1958901559032
95.255499576503
95.3275771177134
95.348443467517
95.3764637394007
95.4061361121667
95.4428597630001
95.4643835758834
95.4789926188359
95.5434883508951
95.5869319249217
95.6048030753598
95.6088365983847
95.6432346804954
95.678302906075
95.693911473764
95.7061640966309
95.7379088980256
95.767271903742
95.7684236284981
95.7733460280797
95.8216434253901
95.8817399046917
95.9229505921239
95.9294144130804
95.9456173976908
95.9725808624868
96.0108106787577
96.0582152702588
96.0465134935715
96.0373249666009
96.0397869007075
96.112156342222
96.1629353772161
96.1526314009546
96.1341323136097
96.146675145213
96.1866882054373
96.1968325929315
96.2078165698453
96.219653737054
96.2259172967347
96.2717401081159
96.3125009829828
96.2988908747896
96.3095320592433
96.3199839134142
96.2917123199017
96.3298408870638
96.3917314534436
96.4042548170416
96.4061581891443
96.3872842013951
96.3936066079452
96.429871366301
96.4322809962767
96.4184336733868
96.4300755449343
96.4696377197841
96.483635561296
96.4927192513484
96.5108252722628
96.5347920677381
96.5419251262576
96.5330219871184
96.5327402975992
96.5388200948415
96.5305373222128
96.5497794866557
96.5886515583679
96.5841834997659
96.5815839897869
96.5787092202129
96.5474885600631
96.559027360808
96.5765054254265
96.5851206705907
96.6282641761493
96.6388964672904
96.6423600467598
96.673709191296
96.7151385054489
96.7450583672793
96.7589134387917
96.7729209980298
96.7485973486279
96.7784061334578
96.8155670898399
96.8213425814791
96.8288195710885
96.7897084646753
96.7899528472754
96.8531530495102
96.8469183100997
96.8543704566652
96.9008710927888
96.9041407227258
96.9129929572742
96.9073005577352
96.8459075452748
96.912912909787
96.9534301174996
96.9151121316263
96.9379278383294
96.9878499242243
97.0360932763408
97.0549845831018
97.0518475544938
97.0382284328238
96.9976221912819
96.9988902799648
97.0243500433132
97.0113706302115
96.9842283601005
97.024061479166
97.0453709384994
97.0597043099789
97.0822432982163
97.0539411212827
97.0076728423109
97.0195868312483
97.0212522225152
97.0516915274179
97.0590330877747
97.02958451121
97.0170716539989
97.0322234854074
97.0619611664066
97.0765392236996
97.0831977825539
97.0714747736401
97.0527898667232
97.0430556043495
97.077583237748
97.0840117076307
97.082432146789
97.0983134131948
97.0631341970809
97.0555200722112
97.10534814928
97.098336813983
97.0544829102806
97.0438576884382
97.0746478833482
97.121723105765
97.1036317187682
97.057469316531
97.0286958853503
97.0136812690204
97.0337461322534
97.0590144906294
97.0492628204115
97.0474434052794
97.0859712141367
97.0518085796638
96.9890845309805
96.9953414554159
97.0144666909072
97.0477945645004
97.0384912943256
96.9303063510016
96.92680006112
97.0443503336724
97.0501984728384
97.0323777528295
97.0533125125962
97.0852762659248
97.1398693790343
97.1426805098705
97.0926010963286
97.0557385186246
97.0747444489749
97.1657282636908
97.1990404456504
97.2491029969032
97.4372508064576
97.4116885857674
97.1943024845854
97.2647777491893
97.4718090134897
97.5280048900559
97.4409260894328
97.375136037797
97.4600957941631
97.6622279770626
97.7187864861201
97.525397394055
97.4938333258164
97.6337091459883
97.6735835244302
97.7741481881154
97.8679235485212
97.8707722582946
97.9203261609694
97.9522503325179
97.9175376038563
97.8624886310153
97.9949873951378
98.2966712987875
98.2382639956032
98.1023339766702
98.3118620522214
98.3442675098423
98.3782289776236
98.5921151567263
98.7179015570072
98.5671525476967
98.166098657027
98.0614159114374
98.10608805507
97.8757437823146
97.6483428567075
97.6645005619422
97.626642726433
97.4703144663007
97.3892810703059
97.3720064969097
97.3888115970815
97.3981512715738
97.4339221800465
97.3497852788061
97.219343235461
97.3274501606205
97.4820302821205
97.4642159426788
97.3907982354425
97.4399558403659
97.5640141130461
97.635375704033
97.6150859421746
97.5964617699294
97.6296808910647
97.6529900582418
97.655691220399
97.8494724904928
98.0929542011242
98.0987876364575
98.0446006617702
98.1288596060898
98.2690614492636
98.355420192073
98.2909184057763
98.200380808987
98.2573193737716
98.3269140059405
98.3125221181988
98.346467522014
98.164446135268
97.8300302070329
97.9281673313649
98.0907828733731
98.1289745554338
98.2140262490976
98.2217667620628
98.177794718453
98.1213166652886
98.1231562130017
98.000551230466
97.9198163929384
97.9095186126027
97.8058684877616
97.7511703728552
97.7761271267926
97.7296603868149
97.6528422505069
97.5957739221176
97.5036265416796
97.4269576003921
97.449582582388
97.4382157519869
97.4023171851848
97.4823950672623
97.5001806961541
97.4549903715745
97.4196268451708
97.3820007450499
97.4598625236756
97.4315437383961
97.355294301064
97.4277896351841
97.4430628349213
97.4065764629091
97.4491648270066
97.4473191935731
97.4348182189982
97.4052476070633
97.3969525266404
97.4509979470325
97.4377160153041
97.4380342066277
97.4296731374192
97.360714957023
97.3851134692717
97.4300183778646
97.412330684933
97.3743035392457
97.3529245892717
97.3187578461267
97.3158185064777
97.3752864118717
97.3552897670734
97.3048083643009
97.304987172957
97.3469945445244
97.3600566514853
97.3196633456976
97.3357123018271
97.3069315350133
97.244924707045
97.2614547372149
97.2508270178054
97.2096405917596
97.2102417104131
97.1831302833429
97.1330926886629
97.1376600234053
97.1317007081078
97.0799207409138
96.9853997118181
97.0008229017822
97.0061421271917
96.8878000192133
96.7600043452151
96.6967517877997
96.7097280744202
96.5455567206971
96.3336033812519
96.1617179637219
96.0510594188211
95.8806501973277
95.6229753034468
95.312654189117
95.0442109604416
94.7795515349286
94.4286365756868
94.0283568935416
93.7022476206595
93.362086290059
92.9332699699233
92.4767513638544
92.0578430245514
91.8310007820659
91.5619205176127
91.2736361657881
90.9442662602922
90.7739719505134
90.8683908199744
90.8326991923976
91.0083579404259
91.2977738982963
91.609914363135
92.1538066898358
92.4905549012146
92.8550376140039
93.2631321541948
93.6161357823473
93.9291382022024
94.2818084658446
94.5736171262515
94.7866801485982
94.9127652366232
95.1553187421169
95.3898799484572
95.5408665606264
95.648686509803
95.5707047351933
95.8297980542522
96.0978336620225
96.060269503236
96.05885531214
96.0971376877092
96.3294676480714
96.3646343367385
96.3676165096388
96.3725784668614
96.3562727609351
96.5106029199973
96.6549711522921
96.5829762319951
96.5051701706574
96.7663358410694
96.76844397104
96.7048292637501
96.7600234886381
96.7406028387412
96.798837029464
96.7951291004147
96.7575603315364
96.7336608141142
96.8057196341893
96.7998844672952
96.7593103526699
96.686051740634
96.6891025579007
96.8020793927426
96.7468062828173
96.7099547842356
96.6698334257566
96.6252600046843
96.6830129162787
96.6860641558161
96.6370612365074
96.6048793447712
96.6005427365601
96.671572568913
96.6701990545199
96.6457045437152
96.6719466742966
96.694959239662
96.7048686718131
96.7493879308283
96.7321373576375
96.7320482730155
96.7617354350075
96.7376235324438
96.7413489863501
96.787959511675
96.7880869129263
96.7997807040714
96.8723666880493
96.8933439825668
96.9113498569998
96.9395391447356
96.9562625456841
96.9737327574527
97.0215355433532
97.0199841404871
96.9823238330568
96.9464245380543
96.9015559827879
96.8915222607927
96.9515713475647
97.0476006818597
97.1190748186798
97.157176694997
97.1915676779667
97.2055263776457
97.2084554260504
97.1810963590825
97.1639622799981
97.1491323917728
97.1230006287244
97.1459055261932
97.2126138364228
97.2598677147624
97.2717184001826
97.2640896274829
97.2587764669167
97.2530580538279
97.2378192571004
97.2168742345766
97.1772086056999
97.1390653094277
97.0866036458793
96.9038206690875
96.4325922697152
95.6397440179871
95.313864736415
95.8910812802266
96.4728314844959
96.6932656127675
96.7281399751442
96.6785774775375
96.5818724377361
96.4346950935085
96.2552123559056
96.0666326100831
95.8463638960866
95.5852510363373
95.2644547086228
94.8800588483768
94.4811309700826
94.2405192451136
94.2108959552519
94.1152298045066
93.7950565590498
93.3688965471821
92.9361845416676
92.5255278813044
92.0995577656432
91.6398896051184
91.1166947416608
90.43607748144
89.4635052193969
88.2814670871579
87.3085451573082
86.9492347863644
86.9173108183389
86.7243258971515
86.3436728221575
85.9165333926073
85.5326758467997
85.2337080844574
84.9741613514406
84.7198586043683
84.408250528777
83.9883043695526
83.3921475206919
82.5409168014892
81.4199539908322
80.1105398583232
78.6957381109713
77.2202959244893
75.6787147972653
74.0722968751323
72.3729721777269
70.5491448278368
68.7113338492975
67.3040341939458
66.6625913494815
66.7451894473263
66.8921677258903
66.453631243375
65.236050625909
63.5876309304096
62.1505554771329
61.3297484812002
61.069465629227
61.2445154963631
61.6372985897469
62.1676031306452
62.8467446319546
63.6737883689558
64.5738137018557
65.5673549192291
66.6432842762192
67.748995958868
68.8226191796505
69.8548727626533
70.7199084704527
71.2414932794951
71.3432085036495
71.1990937180159
71.1062182299719
71.2372170874526
71.4225687835239
71.3573520757175
70.8490490011128
69.7577820752117
68.2195476428378
67.1381368181194
67.1867899235181
68.028116684082
69.132806074257
70.3140373991712
71.4843822622277
72.5960697388862
73.5054762981615
74.1883812303549
74.7763929629527
75.4820275452959
76.3468811982953
77.2152623465927
78.0838145629799
78.9831173865262
79.8025735022077
80.5505117570947
81.2593300028556
81.9164426312188
82.3932867413157
82.7247348816463
83.0991577496929
83.5112250207423
83.8860513423226
84.1936345203327
84.3488850492126
84.354930364622
84.1294727548267
83.4703762958924
82.3971844462966
81.3645277197068
80.7213099287344
80.252217019831
79.5101697221237
77.9054208444045
75.0016702723906
71.8969207750708
71.2970621111053
73.2699324140848
75.8041970882445
77.5437897502571
78.3306342620527
78.6238180858284
78.7063910695226
78.8034996126513
79.023654740577
79.21851864753
79.5473917950508
80.033836279702
80.380833679752
80.6427778192429
80.9247616713805
81.2423790169354
81.5527192549181
81.5399722307077
81.0358424599495
80.079995865022
78.9750442619251
77.9740343153924
77.2793778226618
77.1401104167012
77.3671481498233
77.566596980871
77.5335031685244
77.6575155817892
77.8449105849391
77.5065146463177
77.4893560673488
77.5193099918926
76.628099138872
76.5315170659232
