900
3999.43349933624
648.556783676147
1
128
8
97.9982622443796
97.9909411750224
98.0776660169624
98.0995417795132
98.0401138788918
98.0814848354138
98.096845115985
98.0125469454063
98.0075465221417
98.0595739246937
98.0754984858051
98.0644415140733
98.112957561321
98.1440840375006
98.1232303846642
98.1202221876994
98.0848881872278
98.0100110265081
98.0491223420065
98.0842084339661
98.0312890485886
98.0195285383958
98.087522658897
98.0388994846873
98.0228639048673
98.1548817960097
98.1674994901554
98.0911547303683
98.0721782529018
98.0462207274473
98.052713422624
98.0996983622968
98.1230930344609
98.1726112798253
98.2111892334344
98.147041047512
98.1272092087942
98.1079344177462
98.0180508631339
98.1262052900928
98.2503812896317
98.1088114110618
98.0535962709776
98.1980205550942
98.232813924406
98.1679388778276
98.0882634326208
98.0549594273647
98.1902513268714
98.294127045133
98.1889156962693
98.0668820999123
98.0716791020714
98.1751978438314
98.2355047034484
98.1843475528909
98.1120518293107
98.1152063671571
98.1213091422033
98.0742103089822
98.0515158331045
98.0802840442923
98.1641937645811
98.1339277216228
98.0763512501068
98.0898981183672
98.101644739444
98.2031907789133
98.3348006784854
98.2733556551588
98.1891412946147
98.2402585178179
98.2286149160044
98.128677915455
98.0985876438993
98.1037860881041
98.0330284033366
97.9235313722639
97.7993346143643
97.5113832124567
97.1010190440718
96.7706095355284
96.559328420702
96.6412986473167
96.9106771538174
96.9350262922546
96.8534078476596
96.9413341102083
97.0184185338139
96.9683246109771
96.8750082765239
96.7695815281011
96.6743846223252
96.5415274666091
96.5634941936492
96.6273230687929
96.5327728531787
96.4025393189521
96.2520995633019
96.1726840457829
96.1482985967805
95.9784827934718
95.7863050601068
95.7156808522354
95.8119579958809
95.9269921720241
95.8377775346794
95.7225947841457
95.7347666477365
95.6481441980378
95.6032140438498
95.656803479655
95.488068580862
95.3698113610328
95.4190034551131
95.3893718016176
95.3741296677052
95.3875258500361
95.218630656537
95.0614681697741
95.034888696389
95.0911565990062
95.1007481167258
94.997884530785
94.9210548501423
94.7994144383958
94.6144918257453
94.5528418412482
94.5364049749109
94.4918268939732
94.4133125644233
94.2620225333724
94.1931590149629
94.2626705229037
94.2029171229323
94.0652153993175
94.0191058218826
94.0119624159848
93.9891509235176
93.8956974283297
93.809007199006
93.7212177594779
93.653843061109
93.5632444424785
93.5309840158042
93.5530598181738
93.5312821208645
93.5195013240323
93.3850128525333
93.2487069397397
93.2020057757024
93.0887589426333
93.0783583403513
93.0584945196135
92.9383755852095
92.9267548463273
92.9176358689664
92.8832959866106
92.9214386860777
92.9496480939375
92.8627550676288
92.7920268452837
92.8106487377705
92.8252488478319
92.8308470213137
92.810171225883
92.8194616730067
92.8599815543557
92.8518026213672
92.8556890661058
92.8328417227895
92.8395622173191
92.9576869164982
92.9619778209648
92.9133529770403
92.968519384637
93.0547152312054
93.0869487560091
93.01812243338
93.0361984756501
93.1855500507078
93.2173590704751
93.1797221459272
93.2343813410162
93.2989621516109
93.3668937969391
93.3730460773713
93.3634652916419
93.3870594028655
93.4212259623295
93.4673159624385
93.5047498415353
93.5401827712902
93.5705996660094
93.5789753572565
93.5684773824941
93.5395272295552
93.6076207830432
93.6667018062243
93.6694916970495
93.680214496053
93.7177466576942
93.7926380703563
93.8970142665058
93.9243062088835
93.8966106328547
93.8667570268475
93.9145788967457
94.014043502947
94.0513279057645
94.0735777135127
94.1726713671676
94.2560033229703
94.2095022106451
94.2354514300019
94.3621823673976
94.3561481300816
94.3544838350972
94.4243627551457
94.5391959457433
94.6166200900086
94.608656420979
94.6170340826555
94.6999659030999
94.803464958497
94.8969408511194
94.9158820325559
94.9064916496673
94.9585718582531
95.0763334966077
95.1123500174975
95.0789684038301
95.1212265514483
95.1878070043572
95.2713551737046
95.3493552211894
95.3603825076478
95.3853403416523
95.4276981365976
95.469420820695
95.5121729305832
95.5605362621798
95.6115132650602
95.6517895293058
95.659879974994
95.6443583977745
95.6763009645452
95.7734870571932
95.8192762015725
95.8396926159129
95.8915685258089
95.9357118337835
95.9732498048693
95.9954914260785
96.0062405415555
96.058454286946
96.1024525276304
96.0709240041929
96.0686154069703
96.1282020162372
96.2225910597864
96.2663150187079
96.2506487635632
96.2759084055421
96.2789747988624
96.3262268574918
96.3842015806405
96.3701714840876
96.3371668152192
96.3656053029792
96.4204788311575
96.3957101548536
96.3954459725481
96.4865506570534
96.5200576777833
96.5014167398639
96.5058966315682
96.5500955716594
96.5740490703623
96.5755407655141
96.6138977385186
96.6345592804449
96.6207201925621
96.5981653462614
96.6125107150989
96.6900948802333
96.7136893774801
96.6915792005809
96.7089023430158
96.7125856405448
96.6905870659392
96.655275406632
96.6722327928531
96.6631567083865
96.6194569882037
96.6165948119847
96.672483076669
96.7185781355691
96.7010644119238
96.6803479093416
96.7167720909148
96.7245694570415
96.7514055395902
96.7813118119271
96.764769532358
96.8213054691111
96.8735695591591
96.858375910727
96.8334152949351
96.8479760987627
96.8645276305922
96.8564309718735
96.878630292739
96.9128858146401
96.9101939558057
96.899672984408
96.9201832401617
96.9451010560423
96.928865923738
96.9087547862364
96.9206794464836
96.9549186094356
96.9640783139542
96.9349456750951
96.9551190913884
97.002535988899
96.9915149753735
97.0003414747803
97.0230145447628
97.0426335140893
97.0299565082852
97.0301692708931
97.0691964172224
97.0732073382857
97.0578421240507
97.0622136147916
97.0728969854871
97.0851593202265
97.0870556284512
97.0755863603445
97.0980187861255
97.099548199534
97.0914299277062
97.1109445739376
97.1339581329095
97.1549104783739
97.1432612219099
97.1056872538765
97.1276286562521
97.1498839614832
97.1368420114233
97.1496841820685
97.1482113673189
97.1492907096284
97.1712107444798
97.1998676923686
97.1982778044193
97.1843511654722
97.1617362769734
97.1193100060881
97.1407757356706
97.156012933521
97.1247483914546
97.1420880954101
97.1558855108925
97.1640789018806
97.1970618321238
97.2188113673343
97.2191319029045
97.2249871214345
97.2260054426515
97.2693724165442
97.2709154185242
97.267625952185
97.2921540218068
97.2770212093787
97.3131306325684
97.2990826438194
97.2482517777602
97.3278265483202
97.3566306876775
97.2926219863458
97.2958323580454
97.3824724727393
97.4050127560466
97.355091847627
97.354294391175
97.3908298159587
97.3877468044512
97.3171865915355
97.2937317482127
97.3707092196233
97.3993741041116
97.3969017247232
97.3761579707498
97.3839154456855
97.4462740970787
97.4073170590708
97.3850111942528
97.3938297696043
97.3425003907286
97.3682258121194
97.4175242305961
97.4427075926832
97.4245683738066
97.4023533463573
97.4251097830026
97.4187824773644
97.4698683069141
97.4504760459312
97.3677092570289
97.3930429359528
97.4393263497908
97.4399914707255
97.4178617145853
97.398181273543
97.4073513398234
97.4273832355172
97.4576078969482
97.4923634097127
97.5072636760813
97.4592679276134
97.4374312440322
97.4385577852773
97.4327447030141
97.4417343221658
97.4586786321337
97.4431334015645
97.4426444844015
97.4364578210624
97.4254380081757
97.4371816140262
97.4431256665612
97.4434519777957
97.450252460351
97.412776334641
97.3884339990448
97.3923985156073
97.4063236863066
97.4298215086901
97.4655073641932
97.5151309178137
97.4717904472151
97.3812572928603
97.3594283181758
97.3943703897824
97.4062024025139
97.4309804872458
97.4022106168964
97.3122164163678
97.2857017229212
97.3778163298334
97.3975817399519
97.3430250937628
97.3331380236915
97.3361486655212
97.3457995157821
97.3603201099764
97.3737230806833
97.392761378121
97.4026434524951
97.4402717682449
97.4346209349903
97.4085161352478
97.5001709990944
97.6425517635823
97.7181712526004
97.6046732535569
97.4531175438057
97.5521279712372
97.6796899998783
97.6558941784464
97.6712144538144
97.5917318413576
97.5873433866868
97.746981761339
97.8302162579983
97.9064598295008
97.8505634801552
97.6945813310314
97.8250692244161
97.9322416649811
97.8261696369981
97.8378890804094
97.9769264532853
98.0120063178851
97.7488015857764
97.6527439169989
97.9338448499351
98.0866257460294
97.936760928127
97.8867995772961
98.0987577518014
98.0961368996326
98.1416343701501
98.4732211216166
98.3710036762205
98.076476625993
98.0438589804412
98.0359411916867
98.024697361968
97.9535910171181
97.7058279649293
97.5829807517321
97.6227026540866
97.648828975921
97.6762839329363
97.6347906367098
97.5380133573491
97.5772818163939
97.7530444719728
97.7773612809593
97.5534348499722
97.4219007500431
97.4678091156874
97.5473975843211
97.7066641845232
97.7807740117317
97.6095264869069
97.6655686851356
97.8842634018613
97.8038538196722
97.8319790383329
97.9248173429953
97.8883339563194
97.8891029229791
97.7740247729617
97.8720905936404
98.2342917924141
98.3070047104924
98.1276915792874
97.9022286464407
97.9510427974819
98.1801802586752
98.2516616350903
98.1430685745597
98.0129839507155
97.9445651799816
97.748896658848
97.7439085826334
97.9784010206932
98.012809063037
98.0786107338888
98.1963705525732
98.0067702363594
97.8435105631175
98.0683980373173
98.0939038040699
97.777623436598
97.7250864661805
97.8708160736277
97.9881381231564
97.8548730593418
97.6303734791048
97.6756815405909
97.7883282258805
97.7323998940088
97.6548718426911
97.5481230804863
97.5644670083477
97.6348778570919
97.651868695346
97.662379879565
97.5498438184295
97.4953533983536
97.6474572792909
97.7158438532253
97.6564560751536
97.6147813267645
97.5585368490843
97.5138856244353
97.5244487012974
97.6174052304744
97.6406649950096
97.5750067785909
97.5639667539641
97.5588440424072
97.4682838833592
97.4643874047076
97.6285521862953
97.6578100173115
97.5583706782433
97.5284640584578
97.5756832608654
97.541632974492
97.5107826440429
97.5056889475854
97.5171216835341
97.5092664345377
97.4807482787674
97.5046943327498
97.5061244332041
97.4712154324753
97.4671382168121
97.4481492541321
97.4317515398384
97.4166136907812
97.4072348571468
97.4494314333611
97.4546361065885
97.3639471741622
97.2930542348769
97.2557679431847
97.1993745005981
97.205581185487
97.2112498714317
97.1851082516777
97.1532208083197
97.1869066982669
97.1971533901835
97.1379051588296
97.0888870504353
97.1320351486649
97.2363881806464
97.118852969544
96.9892592275549
96.8883854497493
96.7738752955335
96.7459994771052
96.6460953760796
96.3963452148817
96.1746247599659
95.9845071141053
95.7347033379291
95.4651521673045
95.2017356139059
94.9195005373658
94.6269234742942
94.3516132049735
94.1111834182434
93.996054636927
93.8676660662674
93.7912837859996
93.5950982277113
93.5636290345466
93.8455664025883
93.9555806055602
94.1636620141699
94.4706792239424
94.734159384092
95.0199937043974
95.1617315598298
95.3275518982755
95.5016186473382
95.7035314988943
95.8609128374417
95.9940643550993
96.1085799897122
96.2161504734661
96.2603413551755
96.3810391133403
96.4841512147088
96.5435545988235
96.6113583408012
96.5499091085232
96.7284973296791
96.8731028392051
96.8434328932179
96.7821770461376
96.7399240746886
96.9821168197551
96.9805343418404
96.928056121087
96.9369966084097
96.9483826456364
97.02353169922
97.0911647838183
97.0235756384258
96.9264088131063
97.1364812278717
97.178650247464
97.1047566027893
97.1238240044485
97.1155869647002
97.1662896960622
97.1697827737715
97.1077710745314
97.0325700146421
97.1219054067859
97.1301869608072
97.0746831787506
97.0333765778885
97.0453509524884
97.0675749722449
96.9765752325823
96.968041424376
96.9709163544201
96.923456217729
96.9134518423012
96.898523060347
96.8607602833329
96.8365877626312
96.8476002662561
96.8979868470834
96.8672016450053
96.8652403801368
96.8856862277466
96.8786243564311
96.8919981074729
96.9222862271404
96.8684128017103
96.8297755470856
96.8066118726711
96.7585204146105
96.7738262184852
96.8053028194127
96.8194532419681
96.8510994816964
96.9320261168511
96.9785294869566
96.9944704835662
97.0166997971953
97.0309458670252
97.0375463281304
97.0587702688726
97.0435847486615
97.0209327713065
97.0282679007783
97.0411035081837
97.0506818347043
97.0555537547924
97.0606447364971
97.0713658359022
97.0748553033982
97.0064528428491
96.8417301324392
96.5716959945264
96.2003757900573
95.7750389024252
95.383659700494
95.1716122805237
95.3475382811581
95.9140413766597
96.485500807022
96.7861726267297
96.8954746750217
96.9132062561178
96.8772645110221
96.8410339792318
96.8348548555411
96.8429707850564
96.8682371202851
96.8992964267147
96.8823645303078
96.7319900629288
96.4144289193701
96.3134055974625
96.620491934834
96.909635124471
97.0535498712362
97.1301170363904
97.1747219479686
97.1902090736699
97.1622156528836
97.1113818899745
97.0540790842733
96.9857330277207
96.8859044284998
96.7532026856869
96.5956655608085
96.4300366304939
96.3204078791775
96.2850918012787
96.2622151068978
96.2244843248846
96.1768582756913
96.1012451535624
95.9840807574635
95.8346478419078
95.6500905087964
95.4037037463879
95.0972158176401
94.70587811208
94.2595844936915
93.9059212399669
93.7401822094868
93.641539381881
93.5017450539545
93.3154588346165
93.1042746284878
92.9103043172832
92.7489178702899
92.5798394559464
92.4012656644618
92.225804725213
92.0486754174963
91.8403170539896
91.5638600950964
91.2376269954255
90.8616741732709
90.4103945540174
89.9201822163143
89.3756257461503
88.7652758312807
88.1231098752604
87.4703550737902
86.8697028345715
86.5105807777464
86.5194444485029
86.7525357507185
86.880508945577
86.7069947181808
86.2193392311364
85.6360351616792
85.3042960024846
85.3885926232663
85.7917378763939
86.3503003514685
86.8960392443762
87.4266878762951
87.9373619520132
88.424466658237
88.886831942336
89.3063201767691
89.6893788461645
90.0608735307321
90.3759468706278
90.6110487932104
90.7757910642684
90.8716045618559
90.8818358418472
90.8401984846662
90.8484380231923
90.930723413855
90.9657724013936
90.8634290187962
90.6409741277265
90.3171536149053
89.9808684227852
89.8596810843984
90.0125189191775
90.3009777089623
90.5540414058343
90.7760418517744
91.0001695875595
91.1545127233941
91.2447146149993
91.299104707224
91.2702262135216
91.2024741732288
91.2250043577422
91.2958300142096
91.2757858982404
91.201522467473
91.1843334125155
91.2044471054136
91.192916267839
91.2288126630725
91.3600774864973
91.4653677719314
91.5955489218081
91.8812095994759
92.1734713801194
92.4360654437469
92.7628867926103
93.0537253152597
93.2554192734777
93.2313664981626
93.0091849991752
92.8756950144244
92.7932696862835
92.6363746323853
92.3352211093345
91.5655436233012
90.0207950234806
88.3333583238159
88.1238766239342
89.290189792557
90.6998182105669
91.5194686013657
91.8232256542226
91.9779743804316
92.0762030783781
92.1658236021737
92.2431779727924
92.3480685366448
92.4282375553529
92.5022353175744
92.6239618504597
92.6328510307981
92.7507088832299
93.0304209821723
93.1507504882232
92.9249704940461
92.5179067197211
92.2447730298256
92.0439335477873
91.7053900197671
91.3311756034616
91.1490767860184
91.334592984209
91.6282127291801
91.4271195469727
91.3590047447498
91.7871917995894
91.6585027182357
91.2234586573531
91.0026784598667
90.7548615926696
90.7313682475977
