900
3999.43349933624
648.556783676147
1
128
8
99.1658306742274
99.1941205791211
99.1922891897248
99.205132211499
99.1934319078288
99.195803047332
99.1981957141315
99.1886030318995
99.1544103723094
99.1222483594941
99.1778862342933
99.2305374125325
99.1957353233482
99.2037722329281
99.251816231833
99.2350755324123
99.1959811563977
99.1848032869399
99.1473692803542
99.1438711933386
99.2222815113482
99.2615304946633
99.2922388656751
99.2480428529344
99.1197731360336
99.1368694885719
99.3043417187338
99.3649025971976
99.3015931914286
99.2139454396388
99.125923995222
99.1129464724056
99.2000468098687
99.2052137013163
99.2101951347852
99.3015273037526
99.3223828222455
99.244703119318
99.2129632368612
99.3337361459621
99.3304102581362
99.1980616671821
99.1487125694217
99.2645809505971
99.3315694165309
99.3076495667813
99.2687009582156
99.2079296620596
99.2730377629767
99.3475889563909
99.2721148947122
99.2167674976015
99.2704412143972
99.2983554596402
99.3045143059961
99.3321478377913
99.3048971855905
99.2670922445702
99.2760204635577
99.36465785518
99.3731571321872
99.2695980827126
99.2436840912365
99.2962911311948
99.27737969381
99.2042158187648
99.1579277782086
99.2446900781679
99.338660085079
99.3545485719526
99.3197088371878
99.4092593879069
99.4612606869281
99.3415756275861
99.2270705283096
99.1558741129053
99.0232395719521
98.950540662258
98.8975028805693
98.7217984773826
98.4561736919822
98.1559263212637
97.946541174226
98.0739757211724
98.3257722061248
98.335320090917
98.25492766837
98.2311390919404
98.3493156497121
98.4572768828729
98.3370477336278
98.0689554605223
97.9310740935528
97.9619474854905
98.0133804262493
97.9362989740905
97.7925464759176
97.6638364777518
97.5045718944618
97.4644907760772
97.5010016128154
97.3617929939886
97.218376495295
97.1290670395951
97.1209421243626
97.1763191185245
97.0893712919419
96.9677765117399
96.9610720586849
96.8890302581805
96.7282106953742
96.6825041309794
96.7199578822305
96.6276850387919
96.4442593018529
96.3818526423917
96.4583275054943
96.411484469969
96.2895622157671
96.2139614950671
96.1896327741003
96.0720929815634
95.8939317434076
95.9330246031998
95.9271707295026
95.7135519851971
95.5568170854597
95.5572124230255
95.5966736724652
95.5311780647903
95.3490099712649
95.2413860548897
95.2428496866095
95.2231135544685
95.1392117839564
95.0947535279845
95.0071380919221
94.7976001487154
94.7069581567554
94.7316161954192
94.7371528213279
94.6728851645308
94.4965122583405
94.41913545043
94.4653793315572
94.4513841989371
94.3452226708339
94.257905058738
94.1783439008315
94.1076622162694
94.0553310560522
93.9905167219677
93.9535964086301
93.9227246151253
93.8652360980937
93.8486717667949
93.9088160259744
93.9265506988319
93.8233547218178
93.7072376710004
93.6680028306768
93.6904481864638
93.6852590479316
93.6700969569979
93.7234376354224
93.7052451263573
93.5838240162254
93.5570221156214
93.620171983601
93.6462015878624
93.6826874792821
93.7204405891505
93.7134299399541
93.7540663509207
93.7948914479168
93.8032443225272
93.8162817144593
93.8324496368274
93.8627639164118
93.9001182420366
93.9679672233848
93.9527093467829
93.9587577525776
94.0325744697947
94.0302363284237
94.0267897332638
94.1093953258119
94.1234603420684
94.0954507243851
94.1122430595825
94.1705446187075
94.238499373979
94.2919702073036
94.3166532560171
94.3532184372934
94.4052613307633
94.4022140562343
94.4135039455228
94.4584314681801
94.4611515430722
94.4311763124581
94.511245006275
94.6137751192104
94.6091945665849
94.5792914285944
94.5692292023514
94.5928279151184
94.6720846130936
94.7447261766846
94.8131209243567
94.8317920953703
94.836685957315
94.8984654069677
94.9678619949761
94.9864908434945
95.0376038298982
95.1295363351774
95.1767456115347
95.2115418776758
95.2992955145429
95.4191777792563
95.4292844083963
95.43380701208
95.5487541776182
95.5899777703739
95.6533368758091
95.7304985979403
95.7593148036034
95.7862141931077
95.8350155214099
95.895198840559
95.9363009661561
96.0199077436658
96.1373345365356
96.1796231846329
96.196110152667
96.2585206559978
96.2690283798434
96.2806582502677
96.3713949752582
96.4589952059943
96.485841623597
96.5578618901969
96.6339783950139
96.5946256228368
96.5519442652882
96.6553105117916
96.741788713381
96.7797018819782
96.8413280835314
96.868535722413
96.8475056490643
96.9059659515714
97.0091162304055
96.9888989001183
96.9792565492068
97.0906783202571
97.1361315949935
97.1411298011511
97.1847678553421
97.2495800405138
97.2952971358899
97.313015704289
97.3232010995184
97.3074041757218
97.3184361047524
97.3620755140268
97.4176061337701
97.4206368122946
97.3871302010045
97.4241343550925
97.4808343323543
97.4544616102631
97.4578544528661
97.4619214637938
97.488484397264
97.5554054735189
97.5606338544555
97.5670861141174
97.5674332399432
97.5394105683301
97.5522617033284
97.5900401021477
97.6101282865615
97.5949730683274
97.5426832351629
97.5667248957243
97.6421925001554
97.6584622275068
97.6282578318548
97.5920741556727
97.6247152707274
97.664471182878
97.6617259776078
97.6601872201998
97.713649334518
97.7532698862313
97.7466882991684
97.7111913530146
97.68077219481
97.7088442743477
97.7550434187441
97.8196126611493
97.8899046570694
97.9165819373471
97.9245190276626
97.9357450866747
97.9283215645356
97.9592324088155
98.0086706980159
98.0433175453525
98.0697925013982
98.0913240929102
98.1267021646242
98.1380833188834
98.1290421844484
98.1316274353682
98.1609315434414
98.185498161133
98.1868064695546
98.209690302586
98.2456249673125
98.2431318585427
98.2266446189139
98.2549766928625
98.2715729684832
98.274845843736
98.3071897741924
98.3193572234102
98.3171931922529
98.3433177294104
98.3707235704671
98.3738811290443
98.3532628555083
98.3870040640715
98.403802039321
98.3804167792151
98.3488413319862
98.3542827263572
98.4311571143859
98.4475297734271
98.4176958755359
98.4286271348495
98.4479317751743
98.4655240079584
98.4874625484714
98.4876104971245
98.4766236695633
98.486666736392
98.4815790801881
98.4733498124744
98.4953269904525
98.5259529921732
98.5168058022459
98.5244986373887
98.5490736046212
98.5459934483207
98.5336983508988
98.5236070492084
98.5296451393582
98.5178266590826
98.4839006463788
98.4908680767285
98.5339973895195
98.552924503194
98.5281854787602
98.5349591815074
98.5733384577385
98.5963724785861
98.5887481359837
98.5952859005833
98.6412467378734
98.6703204873985
98.6320070960636
98.6462120775635
98.6590302104064
98.6903564763003
98.7204147109067
98.709621000514
98.7195668492635
98.7223508169564
98.6870388432084
98.717581192185
98.7995733922023
98.7928008728615
98.7624365853608
98.7863120533335
98.7801881338787
98.7773580274864
98.7626447376628
98.7267903458598
98.6846573985255
98.7260844267726
98.784621111836
98.7833313485085
98.7352147275434
98.7477585465837
98.774320523821
98.7938956806289
98.7906159303451
98.7518539413249
98.7825807751689
98.8729581776454
98.8679661996797
98.8060634084579
98.8048521651494
98.8206320924114
98.8305248400633
98.810329648763
98.7758327896043
98.8096653811815
98.8857627238395
98.8735850141698
98.8058368602217
98.7863033968952
98.8245823836485
98.8726181512447
98.8589296503471
98.852666320404
98.8463408237448
98.7958867336203
98.7765912326428
98.8153187784524
98.8737863058115
98.9308953331656
98.9079327830863
98.8482011676277
98.8273724878386
98.8409528231367
98.8706815647633
98.8910686947336
98.9433861383966
98.9385833483974
98.8491376812911
98.8039234842322
98.7695400798071
98.7665991990253
98.866676818496
98.9022595610946
98.8471547209479
98.8503274101286
98.9079960901449
98.9294300875549
98.8690007404302
98.7958647768976
98.8143109981063
98.8689358692749
98.8678203667382
98.8114439406036
98.7467385830937
98.7473187949452
98.7978304993964
98.8204657126828
98.8013877534582
98.7828911237937
98.8310600778742
98.8346001396753
98.8412338416565
98.9032976163968
98.8377854052561
98.7887541338727
98.8648458172795
98.8829782706607
98.8561190805218
98.9056378867964
98.9980178521096
99.0210042326613
98.9642461954032
98.9245761128491
98.9065441198356
98.9792057915663
99.016997752426
98.9810431221522
98.9920684484664
98.996139733159
98.9982054529622
99.0245228532745
99.1019369717647
99.1838292956765
99.2326131112753
99.236214144427
99.2988650141176
99.3180134437635
99.155832591085
99.0780248369521
99.1389278729369
99.210487600005
99.1691672995065
99.0054305519508
99.0638824715423
99.1940216223582
99.2537071316876
99.3660933362481
99.4251896323916
99.5215769896796
99.5809262185054
99.5600333762465
99.4174812931007
99.3223446220619
99.3754729390291
99.3652160914816
99.4262546186187
99.4285390618053
99.2276667035684
99.0456860284577
98.9804570921726
99.0193957939874
99.010908549793
98.9753775828247
99.0729563731863
99.1353726631639
99.0459878706151
98.9709880236574
98.9941867389931
98.971117842431
99.0332456213036
99.1364680105351
99.0291336192806
98.9480687748921
99.0273010551306
99.1103042310814
99.1131370372245
99.1702948694767
99.2508611305035
99.1456812422413
99.0541958253531
99.2382836068189
99.493428098396
99.5826989875863
99.5562582558688
99.6172964389291
99.5732863543865
99.4718545587825
99.4837504775229
99.530655372855
99.6660065717672
99.6850759030745
99.4646111184713
99.2697782061476
99.4549021644921
99.5130457325938
99.2354931025893
99.2762450991072
99.4285702552493
99.2409840769639
99.2045595951251
99.5092803881954
99.6591319565013
99.4131396368005
99.2685030080723
99.2772105833792
99.2176393356695
99.1258376270516
99.2325069992271
99.2732527993232
99.1285075041558
99.0352760206259
99.1291319324445
99.2026800064034
99.1779914559154
99.1816530388958
99.1614280533527
99.1086007919201
99.0534552437762
99.0179531564847
99.0428529965962
99.1145353029211
99.1287621274045
99.0865266173779
99.0606328752442
99.0459299239408
99.0596319747166
99.0977606992362
99.0930085734363
99.0774238761966
99.1101027041499
99.107290053386
99.055238828275
99.073096483215
99.1251609760525
99.0939183960421
99.0673092960681
99.040558712961
99.0079277378556
99.0711877700273
99.1020389045177
99.0452697761744
99.0404401196331
99.0328126738048
98.9957264799398
98.9788808212956
98.9499482115278
98.9595346718978
98.9665060978103
98.9147946479348
98.8957935495031
98.8600754846631
98.847497628787
98.8596312152545
98.7774195302349
98.6226425456024
98.4515707883961
98.2793865407106
98.1625351003875
98.1633014778329
98.1068471932839
97.9805165761663
97.8894281066042
97.9663575470681
98.0727685465001
98.0504709801812
98.0312949355063
98.078191486368
98.2225658758261
98.182061032402
98.0644661066717
97.9494857422798
97.897148275326
97.7732394187202
97.4894986462938
97.1351182831934
96.6444757980079
96.0055143809768
95.4243505937033
94.8361163930414
94.2016233993789
93.5539169946457
92.9499409815263
92.3357167243682
91.897976999304
91.7921987081332
91.6050509641037
91.5376420919547
91.3244345474941
91.5151194785747
92.2718749498846
92.7666675701537
93.4754143665661
94.1978802438465
94.742487869457
95.3689358691631
95.6996757841664
95.9703121650875
96.1940416906228
96.3947990352321
96.6042903547099
96.8409482803221
97.0190068915585
97.1797312459994
97.2853195720646
97.4197215046415
97.5599342017558
97.6607742538835
97.7560246197358
97.6954887203878
97.7675290316087
98.0333989834298
98.0805944945988
98.0762811806908
97.9956385029533
98.1607940797012
98.2312475431998
98.2148773759315
98.2117793437762
98.2269314476629
98.3137901187944
98.3753733819735
98.333009366592
98.2716067307954
98.3957323486777
98.3926330700127
98.3214616604422
98.3772349178575
98.3913342330044
98.4209788800032
98.4021925930735
98.332848674595
98.2688026442236
98.3050501913224
98.253672319026
98.1346490035279
98.0351612639904
98.0086937895418
98.0539354162495
98.0204566414438
98.0120517711232
97.9743005898289
97.8807366822029
97.794266518542
97.7210562643518
97.6660840609512
97.631245020095
97.636764380256
97.715848751628
97.707547273241
97.6817555669625
97.7212025480703
97.7671832580537
97.7474503296763
97.7452370591036
97.6702854830316
97.50022156755
97.343712592335
97.2352981898185
97.1765467613377
97.1928784890346
97.2432247273101
97.3368115147675
97.5153504265942
97.6520710846168
97.7271437856239
97.7363495979648
97.7573124932997
97.7404096325467
97.7217488661931
97.6820799023015
97.6076402443556
97.5596906521702
97.5232624206261
97.4957205223819
97.4924891039567
97.5206754656335
97.5086549013672
97.4021849327439
97.1968218206995
96.684052466156
95.7064078485338
94.4122031738455
92.9972552078236
91.6509719393792
90.8574323558177
91.4738052130056
93.4500364668704
95.3382562984632
96.2579153865046
96.5712713755061
96.6602424237035
96.6483330711231
96.5882448296107
96.5322908692034
96.5476516462894
96.6244242752897
96.7399693575613
96.8761781227828
97.0161594735414
97.1508490584214
97.2611541288295
97.3597202444929
97.451176486053
97.551721447154
97.6634036393808
97.7673962316846
97.8464480922366
97.8679909174092
97.8229256109448
97.7212941697891
97.5844754711899
97.3863323078105
97.1418588391206
96.83886597831
96.503914520309
96.2398353867997
96.116143164074
96.1335952435196
96.2172380099925
96.290933070379
96.3040861919164
96.2343664076289
96.0745928574921
95.8393492387916
95.5194315251742
95.1320435265057
94.708380594645
94.3058655176135
94.0305932688995
93.9183838355125
93.8435356873415
93.7027423861955
93.4740131591833
93.1840057123181
92.8319661872349
92.4439721713287
92.0313209319525
91.5999566542258
91.190825237121
90.8523281153032
90.5771107153422
90.3149612839008
90.0574621660594
89.8248362183746
89.6083088281619
89.3811615408428
89.1243720953763
88.8417380787751
88.4786361072919
88.038808176449
87.6644128770239
87.5632180476969
87.7644965210364
88.1450783771168
88.4722594576143
88.4966151287386
88.1611636049834
87.7123423626676
87.4815294947347
87.6332374846763
88.0942789563047
88.6888775172671
89.3317788750613
89.9914882733142
90.6258437103928
91.167841651207
91.6230962753279
92.0722056924607
92.5295581287007
92.9138783344513
93.174922531648
93.3614558266936
93.5033665029363
93.5509269691156
93.5316937789719
93.5269789047205
93.5638814332688
93.6271648643187
93.6809786886315
93.6023423384077
93.3260393466867
93.0611363842297
92.8811664597805
92.7647457592184
92.7631400792662
92.7669237295086
92.7354105326711
92.7186836889147
92.6861176426155
92.6203659454982
92.4804232701706
92.2067013277385
91.8552235659323
91.4980317196615
91.1014061963805
90.7194714107678
90.2961905250685
89.7741803002305
89.2519673259922
88.7788392390047
88.3960792129745
88.1764730847339
88.1005144398477
88.2260658655694
88.642301708968
89.3085251786358
90.1291389321774
91.0071447696581
91.8832403858364
92.6959200497422
93.3092788581707
93.7405190852343
93.9145447813941
93.9567773226085
94.0532001318953
94.0624331434186
94.0512943200978
94.1668140256313
94.2549073691966
94.2235817645506
94.217418258894
94.1832531653504
94.1111792806278
93.725574130616
93.0674310751858
92.5867583263596
92.3769606708188
92.3714817306864
92.6179562135567
92.8299135003429
92.8827325036628
93.0714013426828
93.1132546322652
92.9704295276505
93.0536478691672
93.2649706667019
93.3396010813664
93.0213167271156
92.4992197538475
92.136101532608
91.9260333912474
91.8290675910486
91.5362144729978
91.3853969583352
91.4651075091574
91.1959305594064
90.8093066815102
90.8865145084156
91.624297465729
91.815914051816
91.2497571658972
90.4154093817862
90.5930644806884
90.9951457629496
