900
3999.43349933624
648.556783676147
1
128
8
95.803499165072
95.8292584449593
95.8650104871276
95.8413962118909
95.8288648149182
95.8337041600762
95.776477967223
95.7859512594385
95.8763110538033
95.8548994912726
95.8172304060438
95.8279344912165
95.8314281092535
95.8593084946716
95.8697568789129
95.8625894536574
95.8600987073833
95.8885532199316
95.8948901115047
95.9186197980425
95.9681353959356
95.977829043016
95.9716589277302
95.9417966913001
95.8687569670819
95.9123101794309
95.9794748499662
95.9883637717318
96.0564202404687
96.035280209969
96.0079017690061
96.0412956628227
95.9964867409393
96.0208994901887
96.1051212350913
96.0759510099641
96.0255774100327
96.0664833316942
96.0343968083014
96.037283586342
96.1104641499854
96.1047180123285
96.1697044095475
96.234899466044
96.196063599824
96.1231406693167
96.0989648302761
96.137707302867
96.1837467767254
96.1970757165324
96.2018408951853
96.1984864737474
96.1236258563316
96.1314503034838
96.2851614719009
96.3226244078444
96.2010296096516
96.1406616562164
96.2167074994889
96.2427641154748
96.222228572318
96.2759204308302
96.3037752339712
96.2892484553089
96.2928174426763
96.3319607050756
96.3108558278612
96.3257083025852
96.4766622705116
96.4974091679566
96.4218843668285
96.3433449363262
96.3144370209854
96.2508252864626
96.0901917451782
95.8640644370062
95.5466591661453
94.8834947758268
94.0428498487764
93.019940218508
91.4077963435247
90.1565215394134
89.7953022808118
90.2738652622616
91.1103259887731
91.6389943824503
91.9351021238601
92.0759388082381
91.9433505273686
91.7200649687071
91.5271898269988
91.1766375555429
90.7693684688482
90.4861626825785
90.2553419155412
90.3966951136066
90.5213192843795
90.3059278762834
89.9592577360475
89.3596206038735
88.5545633435694
88.1395008853529
88.1055783680002
88.3648986022101
88.6772204673705
88.9208096088632
88.9419918438984
88.7125466579488
88.5314185799019
88.5566623734488
88.5301491922021
88.406803745874
88.3056423632536
88.1427332427127
87.9914950604912
87.8665991498892
87.6134670173013
87.4449304662244
87.3421762920893
87.1856472419194
87.0087402837472
86.7263165164103
86.4329735743315
86.2774831369942
86.1499087448835
85.9338665612819
85.6683659196333
85.3212248192555
85.0192891293831
85.0014908446292
84.9902781601653
84.7891843297295
84.5829297187544
84.4495699359219
84.3208607508518
84.101813052069
83.7852665175146
83.5796595289954
83.5374363503101
83.4320160587769
83.2303000621014
83.0444592153224
82.7844462033811
82.4506868375688
82.2374513664435
82.1604065564534
82.0144145967765
81.7830192942473
81.5440940433773
81.4341117839313
81.3175139863018
81.1068967335527
80.9697264876575
80.8976818841685
80.8765494639312
80.8659681462483
80.778295638894
80.6919081547281
80.6334099119941
80.5925188168758
80.5742402693805
80.5228734211422
80.4010835808664
80.3272058014289
80.3389491032773
80.3287951386738
80.2813214024485
80.3076770318612
80.2822462417333
80.2621941073458
80.3485652701803
80.4390554605547
80.5207520149632
80.5735535814608
80.5538184879172
80.6372849251299
80.7690101724766
80.867958521977
80.9653508387688
81.0193734388181
81.0495397331167
81.1437687040197
81.2379396633613
81.3261834852172
81.4427643690561
81.5439627495951
81.5426554647223
81.6208156082598
81.727040281328
81.7945994438043
81.8858883776002
81.9388533527815
81.9945173631375
82.1553110788869
82.2319478635382
82.2382309779629
82.3385357758663
82.4591499154615
82.519721708176
82.57950117308
82.6258022962454
82.6901592063443
82.8040980208028
82.976208329435
83.0728859515942
83.1056598291034
83.1924297110182
83.3130950698945
83.4132861006283
83.5772287210912
83.7539915685106
83.859369148354
84.0204496688542
84.2071560921546
84.3030519615412
84.3811082504457
84.5776595876106
84.7665230350154
84.9015981789991
85.1104642243903
85.300922527616
85.4168622165468
85.5375396642318
85.7282515481592
85.9559624668157
86.1022482930803
86.1758972795358
86.3445969540895
86.5837073614687
86.7872725344613
86.9112570635653
87.012152664562
87.214442226803
87.3589765506161
87.4960789729531
87.7480307588321
87.8940602062956
87.9600599632608
88.0545570203584
88.1721654121253
88.3656800237327
88.5222671732603
88.6223579728785
88.7418118777106
88.890565695839
89.050439273842
89.1312621097935
89.1968593261485
89.3437253239836
89.5159308055653
89.6358346927623
89.6974575034199
89.8118236300761
89.9327547606011
90.0043909303853
90.1512334843172
90.2654549684809
90.3029886852739
90.404948428915
90.5183573869785
90.5832257035555
90.7064926458686
90.7945240181765
90.8234347504581
90.9067636974094
90.9911793152107
91.0663647942905
91.1614580499914
91.244160657616
91.2753375192178
91.3435066688575
91.4090709949149
91.4966164877937
91.5532474216531
91.560829820722
91.5712187096649
91.6139245311764
91.6920961695165
91.7582175890219
91.8041196181093
91.8507988830725
91.8497108707854
91.8298379236643
91.8310678807379
91.8353219200751
91.8887475791305
91.9344839473306
91.9404726578906
91.9689712398838
92.0161784692929
92.037099125875
92.0760251465824
92.1215230015161
92.1727722573739
92.2058988055845
92.2358175584422
92.2753187281609
92.3237179536127
92.3927078439652
92.4292603749763
92.4307235478453
92.4709164301192
92.5406589912941
92.594178586053
92.6774652626485
92.7659189349753
92.8130417923365
92.8276612195505
92.8664714703045
92.9797640889662
93.083162377285
93.1128407739089
93.1243433656926
93.1557599252254
93.2207670260541
93.2573702162941
93.2885175522381
93.363586002363
93.3910353856957
93.3890556044407
93.4138504723465
93.4700809107082
93.5390378778474
93.5717408337966
93.5911207035259
93.6001736052709
93.6245731142914
93.6643131138602
93.7079611429367
93.7401677254967
93.7602989496189
93.7487800027508
93.7948477549949
93.8561788817585
93.8433356491141
93.8462178792318
93.8811432775684
93.926966610573
93.939967490131
93.9277132133078
93.9391947346015
93.9962431791261
94.0373711123592
94.0373974651679
94.0495022982455
94.0740056440104
94.0844573598049
94.0825215285258
94.102944653213
94.1540329496642
94.1892172762474
94.1915036091988
94.212021596632
94.2160920559342
94.2096270935291
94.2248675517952
94.2419522040371
94.2898073016134
94.3160818225879
94.309118835918
94.3124791957249
94.3317699178508
94.323219721859
94.320991335711
94.3594228813128
94.4028288534994
94.4550106964432
94.5136108103586
94.5309724603147
94.4980121090957
94.5029553537787
94.5433391751525
94.5902176321391
94.6486670873346
94.6968450791754
94.7054256845163
94.6828833807609
94.6935329098196
94.7634817704889
94.8277087373627
94.7855504294311
94.7547248057193
94.8086267654006
94.8260757018798
94.8886268666546
94.9125162026694
94.8514352957001
94.8619256463347
94.862946443956
94.9108098973178
94.9407714379141
94.9015936075585
94.8987234973388
95.0110889781076
95.0419044603927
94.9367115223542
94.9129468020354
94.988492817984
95.0091772224885
95.031695312373
95.09632940861
95.0464554761583
95.0508648489129
95.1168030118116
95.1166086581665
95.1275229411726
95.158921720224
95.1775243592599
95.1590300525187
95.1155848725051
95.1482496423925
95.2046037137262
95.188220349517
95.1423665541953
95.1204255093395
95.0937344553365
95.1281933420671
95.2168957435637
95.2229918795403
95.2281975474142
95.2550439702854
95.2002657644185
95.1730707826715
95.2085057207305
95.2431133638406
95.2621220534378
95.2834244192298
95.2966046786144
95.2853325662579
95.2437645551473
95.2026944073026
95.2037307755861
95.2673523953796
95.2939663563424
95.2740428156875
95.2284617164127
95.2314104683633
95.3200206786672
95.4028031324707
95.4097901757618
95.3291578537254
95.3122433506733
95.3258517050395
95.2586238611872
95.1866075499567
95.2267690203414
95.2516662123194
95.2546595381585
95.2934507423831
95.259621641718
95.2213432690658
95.2372570899751
95.2559620773826
95.3197388673851
95.3455409298324
95.3199656370055
95.3469018520918
95.3962268639441
95.3917334364233
95.4029460978844
95.4210498300106
95.4575167503154
95.5643155105713
95.6571461814211
95.6552801789046
95.6992867241674
95.8231840764176
95.8465736414528
95.8181665098004
95.8932836203065
95.9997223102444
95.986205612738
95.9429849383548
95.904520944668
95.8620594512091
96.1425553410115
96.352892818798
96.1496104850584
96.1450048323261
96.2989037922899
96.2215632370054
96.3002556853555
96.4682595111563
96.3727335198017
96.4395618113041
96.6137289001155
96.5974907877165
96.6155013113517
96.7874055879733
96.8915408209805
96.7116663763788
96.6964609542809
96.9088284906469
97.0379475545583
97.2406214564922
97.0029656761443
96.6750525491239
96.670662836899
96.4867571827593
96.23831015326
96.1041619242199
95.9082008046671
95.8136806830165
95.8432385653375
95.839033938508
95.8149416033995
95.8044654512105
95.7686874173175
95.7687742842785
95.7955252618043
95.8145113948429
95.8319051805182
95.7702697217878
95.7947107523917
95.9203666403366
95.9822216295432
95.9472575724044
95.8886019248824
95.9471319780072
95.9940675123107
95.9607282672159
95.9859575878885
96.2184311350108
96.4592686720437
96.6543719526499
96.74133360658
96.5957619480164
96.6854945351907
96.9660613156848
97.2076520615795
97.2328839815948
97.0192297579149
96.6860283695108
96.5005556717741
96.5767959323892
96.5482357898767
96.4185420300237
96.3974941387055
96.527539526672
96.7770327928562
96.714945562367
96.4942394670284
96.6255554608859
96.8377376287813
96.9164751493968
96.6236191606775
96.3255741186707
96.3304045471824
96.2835764813379
96.1836121234308
96.1335936033886
96.2052442063862
96.3160783548032
96.2006473848901
96.1127134427975
96.1593219906258
96.0911601299468
95.993815131036
96.0437494743654
96.1119795821774
96.0418037276509
95.9890776334309
96.0516274208203
96.0482007069952
95.9969915811316
96.0471406102937
96.0495627874787
95.9682025981599
95.9769460313347
95.9915267029594
96.0050199512925
96.026414403645
95.9897172486758
95.9865648969258
96.0029387296844
96.0137973658745
95.9992291184841
95.9449129340988
95.9528260529647
95.984254030755
95.9466226387828
95.9381091715232
95.9253691754901
95.8868421405586
95.8570459742719
95.8662223610558
95.821261137058
95.8007130161299
95.8161585008317
95.8127711208056
95.8255615876697
95.7330941674068
95.6450310263016
95.6642710760077
95.6087474166116
95.5682677314841
95.5569994170305
95.4719903666148
95.4050867134677
95.3600400854673
95.2371792002116
95.1369937448926
95.0668028218012
94.9385491686219
94.8025944439652
94.704330948064
94.5808666713974
94.4094214007288
94.2790731979768
94.2217090094749
94.047703146359
93.8281517000136
93.6484366315622
93.6936416369714
93.5937487268619
93.3558665578795
93.1020136540243
92.8312525539405
92.5763801914734
92.2929475279929
91.8210737856908
91.1148354924281
90.5823790893991
90.0623229433185
89.3327991376879
88.5928742636309
88.0010660779479
87.3567222660404
86.8123972884785
86.0852796416222
85.4342558055242
85.1954481365664
84.9557053733222
84.6912925754058
84.5088479541885
84.8397271529537
85.1337512092507
85.6484975415576
86.2792583764466
86.8461202270069
87.5102934647706
87.9614757747152
88.4518043918426
88.9796193654592
89.4919709550246
89.9565622128299
90.4345347864922
90.9074293668299
91.3550245794541
91.6527685660347
92.0546827648148
92.4888250390681
92.7742407272827
92.9794934108522
92.9726115529922
93.364081239453
93.7501767142435
93.7756841055773
93.8049409870977
93.7916193680366
94.1076647480124
94.235489144762
94.2604544840523
94.310635544365
94.3207300057895
94.4381203399246
94.5956806046127
94.532078092975
94.4130265435389
94.7169433696251
94.7767654218782
94.6804933537205
94.7232724321903
94.6485303455656
94.6706928155147
94.6408299357642
94.5201275969484
94.3659134276014
94.2586561849277
94.1209001076498
93.9664933965934
93.8376711824142
93.7125696548161
93.7580822612788
93.6527977312452
93.5583142507141
93.4465565817154
93.2277132345946
93.1080767636019
93.0187320678792
92.8863119312273
92.7716903391575
92.664707911769
92.7524872723243
92.8126934268199
92.8365722917682
92.8884361222395
92.9209246198322
92.9255055401694
92.9745542305477
92.9206303609873
92.8310023191713
92.7688658799091
92.7194772596505
92.7445736669155
92.8369661877822
92.9085755367654
93.0008092335517
93.1832551626314
93.3094244989909
93.3791327985997
93.4371652358264
93.5096905657444
93.5601824721507
93.6374212283169
93.6445506892934
93.5753263761182
93.571522349588
93.5718826969122
93.5665946461058
93.6103647644672
93.6811656564281
93.7130725372305
93.701439411532
93.6040628054455
93.279033042434
92.7206369598829
92.0340004457005
91.3165081544434
90.7229173354397
90.5154968335069
91.0371803296895
92.1217721218259
93.0175484521155
93.4048054840355
93.5400332171456
93.5603127646292
93.5365367571828
93.5313374387901
93.5263687762463
93.5530135105514
93.6262046554617
93.723751488198
93.8128166142733
93.875005914107
93.929875413393
93.9623224074161
93.9422981562379
93.9124027081696
93.8893906371971
93.8537160375927
93.8248389343182
93.7800002421712
93.6763964099793
93.5114719798459
93.3020695461962
93.0346672283351
92.6765446298414
92.2318996673224
91.7366260910309
91.2495567876889
90.8784179082786
90.6986974713952
90.5804464415611
90.3888553555625
90.1313694773898
89.7899729922775
89.3616320644059
88.807185275119
88.0459745715772
87.0463344015691
85.752226625023
84.1259529218293
82.3904612413141
81.1130078939472
80.6607946386104
80.5055614085788
80.0739768348168
79.4344200195496
78.7702996747464
78.1578277311749
77.6485477948342
77.166355922356
76.6365816188718
76.0492631893056
75.4262647545465
74.6885168308784
73.7662370772704
72.6124164556012
71.2237071698646
69.6097245497473
67.8086718815024
65.8516811283436
63.8318704553779
61.7805987795455
59.6717766053766
57.6092520537537
56.1592547572052
55.8402950944073
56.3343312184828
56.6585684383407
56.1516720127842
54.6965724400532
52.8877149014012
51.6324816262783
51.357649638334
51.8569602628039
52.8504423830408
54.0991300179572
55.508679414032
57.0219346722608
58.6261270355525
60.237823359463
61.8496386937406
63.4648742837299
65.0054640026495
66.4067028510271
67.5928884700175
68.4239535934969
68.8053616214581
68.710099887936
68.437982609749
68.3698067453596
68.5265072450654
68.5540529591187
68.1168355858203
67.0124857783021
65.2932402351051
63.5121821174772
62.8087212130373
63.5827596203381
65.0694063213916
66.5870991930371
68.0846876428841
69.5523552575067
70.8126764198123
71.7201423610616
72.3201875431291
72.8229719217598
73.419986880378
74.1277998837336
74.8257120449643
75.4320327401221
75.9379904591334
76.3343306796151
76.651202313425
76.8711546426038
77.0745693936136
77.2958039623154
77.525894528601
77.8392703895626
78.2846524961887
78.7770248581453
79.2749900080166
79.6969358650344
79.9436874687265
79.9207054120962
79.4631815854422
78.6434951540537
77.8807992793783
77.5396184498841
77.5676156340163
77.6686475380646
77.6835008684097
77.706996043908
78.0331363232444
78.3539517853066
78.2760927308884
78.0544499952584
77.6529134250057
77.0502636553092
76.4614255294777
76.0273220961722
75.9426084790165
76.2711158390453
76.6989574349791
77.0007073521592
77.4167907251096
77.9521255970965
78.331829180473
78.483036204552
78.5223280820359
78.391053946528
77.6320803140878
76.3609242369985
75.0292154533987
73.6766080653314
72.7123284585353
72.2772447727121
71.9114449002993
71.5669585216687
71.430409210652
71.3057992100228
71.0152556774053
71.424143599853
71.8364420032158
71.5462519493027
71.4333847897115
71.2338174459224
70.6484107621042
