900
3999.43349933624
648.556783676147
1
128
8
97.3698429325683
97.4332806799925
97.4503988192199
97.4602131854612
97.4798493233522
97.4814308407249
97.4913211405986
97.4549311988072
97.4328652407355
97.4513847678283
97.4921995504085
97.5165914347079
97.5062151660622
97.5184771263246
97.5640164704097
97.5598467881651
97.5314227125345
97.5062383978112
97.5208342585551
97.523901895731
97.5528291280003
97.5647574494032
97.4967939943235
97.5008638253844
97.5198650218261
97.6000168504258
97.6829589947626
97.6011230318385
97.5998162001196
97.6226355618094
97.609432323018
97.6587362299947
97.6262102594992
97.5892159265322
97.6957982608812
97.7111267655716
97.6499268150741
97.6542220296918
97.7168430729975
97.7695013423732
97.6776478616411
97.6036823687582
97.6913458973725
97.8321193606608
97.7884761472368
97.7093740656738
97.6105114590094
97.6560495186222
97.7992252649761
97.7638367360678
97.7053061173495
97.6827867104707
97.6735925798073
97.6965410489688
97.68344498346
97.6275208017092
97.6474309395063
97.6948298273833
97.6660139407901
97.6308093579602
97.6644885578587
97.6942057078733
97.6968025483529
97.6900233436526
97.7006086397301
97.7742245696419
97.8852356651563
97.9031968076259
97.9238660850588
97.8895717030885
97.8802271975437
97.8842481957342
97.6976949127987
97.6603947247339
97.7659373473018
97.7317065676473
97.6684496086071
97.5817310801192
97.4153608446612
97.2674087345488
97.0179280150092
96.7481288270098
96.6731183365898
96.7391344476956
96.7586837462916
96.7411797986285
96.6902395590415
96.5984845867861
96.4615037538108
96.2182921282835
96.0234318828106
95.9400216672312
95.8426648672224
95.7493189785484
95.6502656671633
95.5792307044185
95.5602740708273
95.4580551347298
95.3587637918049
95.2789814896451
95.110027529515
95.015425781497
94.9103644619693
94.7772695407979
94.7716417291514
94.683626816403
94.5714291623329
94.4758037789036
94.2961378169033
94.171509513869
94.1085448709934
93.9068386100325
93.7998077326287
93.775765270222
93.7004580560197
93.6432627278901
93.4522459301746
93.2808970543767
93.1629230582315
93.0726533688667
93.087609258363
92.9439634629143
92.6964653089234
92.6234983032233
92.627982267513
92.4950991821294
92.3459750546346
92.3195469945391
92.2589481323562
92.0942951548513
91.8879551003359
91.7493475287773
91.7088656621043
91.704069065254
91.6529217307706
91.4952855097689
91.3157344306609
91.1956314654295
91.1477828979989
91.0671143289727
90.898164734035
90.8695212803975
90.927538752859
90.7751699410623
90.555128489519
90.5523539513782
90.5762034888091
90.4757131090544
90.3843691379204
90.3657604474664
90.4009260190503
90.331468665394
90.2255047636215
90.216840402861
90.1700446741325
90.2071480042553
90.2717190358568
90.2183367564957
90.2695803936536
90.3212574624098
90.2565974163051
90.1959643237705
90.2266114179387
90.3355156410657
90.3221781758173
90.3260199560884
90.3944293254536
90.4695342912043
90.4982183033079
90.5385942875752
90.6532460688372
90.7666905757005
90.8103668350308
90.8251672737027
90.8834169693268
90.9996150738681
91.1021380000678
91.1923386505443
91.295461702704
91.3123612688932
91.3770646987076
91.5361875798096
91.630650349584
91.6562270308264
91.6357594263809
91.6785209599579
91.8588981473011
91.987293851505
92.0120349828946
92.0729951302814
92.1909897659791
92.2426979542935
92.2175039163214
92.2219110899245
92.3155697734115
92.435754166212
92.5247177175582
92.6101293006775
92.6124911071634
92.6339796996686
92.684272184213
92.7526222927313
92.8993247983649
93.0269682819607
93.0565796356888
93.0660991686516
93.1948965957534
93.3738443433814
93.4028646712645
93.4364182686494
93.5208226259403
93.6437672561343
93.7591094972401
93.8711212967787
93.9166945953
93.9590659811384
94.0067582516452
94.1301594364475
94.2820434428079
94.3489855048847
94.4264126917501
94.5103446636235
94.6227219133816
94.7318901992491
94.7687536455381
94.7964186913437
94.8812345035534
94.999916699346
95.1065424819228
95.1389026260548
95.1839863782403
95.281945966107
95.3309378959887
95.3981055777931
95.481597541385
95.534844236742
95.6261298893661
95.7345876265397
95.74716119595
95.7487053525612
95.7488911257949
95.845964329088
95.9477330843411
95.9794183758187
96.0114560917745
96.0215183303535
96.0304086527157
96.1313277788246
96.1976798603239
96.1948147070844
96.2143133142923
96.2720231703772
96.3180441329118
96.347440544061
96.3426509354077
96.3516727339168
96.3776509489754
96.402055391791
96.4456071832406
96.4503364827139
96.4186739471637
96.4200819595689
96.4284466326988
96.4014924048615
96.4208400991176
96.4567960773766
96.4402504789122
96.3917126700921
96.3900954024778
96.3761066493979
96.2995422433661
96.2179210148516
96.1665243871102
96.0910062562137
96.0003430235477
95.9819803218466
95.9265928762938
95.8356296937789
95.8008540375707
95.8212103122771
95.8635095777745
95.8600209997878
95.8308089069643
95.8030453180619
95.7312739331294
95.6317553898027
95.5746632161284
95.5532886823435
95.5038521719519
95.4236042798302
95.379353785917
95.390944509453
95.4205397665348
95.4315671800199
95.456713992445
95.5312345331798
95.5950345012136
95.6392082925268
95.7188496776735
95.8329250639982
95.8976003810997
95.9669853746265
96.0964546998953
96.2298043164679
96.3660625020199
96.5060601012918
96.6139319088287
96.7238825389621
96.8117338316418
96.8876492130377
96.9794883011822
97.0107729161472
97.0452547734116
97.0859755570443
97.1300857979513
97.1692777675521
97.1710472710479
97.2012400416629
97.2349293471868
97.2398080618348
97.2556155432037
97.2985136317873
97.3156403894963
97.2995494715893
97.337089699659
97.3837847501375
97.3959710120541
97.3740040958209
97.384169797647
97.4222410927326
97.4421097991736
97.4658831441516
97.4532898798652
97.4440091496025
97.4430301108042
97.4804505453224
97.5023161884188
97.48523773088
97.485705825066
97.5029296026947
97.4780896124872
97.4827664725479
97.5454783987546
97.5618181142101
97.5517380150504
97.5630007541477
97.5663286743035
97.5771471176304
97.5818180287098
97.5828920902709
97.6101790869489
97.6252856612063
97.6340709225116
97.6342364006661
97.606190559333
97.6125802961806
97.6770885562066
97.7102173113193
97.6411479851823
97.5850354829732
97.6038170747531
97.6389753007566
97.6700794216391
97.6303262065752
97.6148269007375
97.6755062529652
97.7176081672977
97.7040973673215
97.7154807688859
97.7574546552263
97.7785901946474
97.7841902509053
97.802195947751
97.8287953817962
97.8880467373961
97.9325751386081
97.9479892159273
98.0120192443985
98.0353131674935
98.041810870801
98.0355023780545
97.9926858200646
98.0585930660163
98.096353528266
98.0643732823291
98.0731957905921
98.057664354397
97.9248449115134
97.8523879595663
97.9114941572991
97.9319349586585
97.9563521982468
97.9598058361444
97.9700935676328
98.0093990117948
98.0676553199421
98.1245455397594
98.0852436143141
98.0415699655621
98.0597315317889
98.0835665184351
98.1124437727673
98.1202919874022
98.1628079848948
98.2002066102719
98.1872012850954
98.1664115198929
98.1397011439831
98.1561954750772
98.1693092632152
98.1741720775603
98.2159691094852
98.1967770378154
98.1323642529264
98.1617724563897
98.1723901439737
98.1876047957993
98.23434555925
98.2363184878271
98.2575037742854
98.2779826795375
98.2060007942352
98.2060724015175
98.2539248751697
98.2411724225033
98.2043259894724
98.2209499449453
98.2555020990707
98.2465909341236
98.2142427676367
98.2088817620565
98.1775679020004
98.1157774213842
98.1356732404577
98.2354715202121
98.2893279291481
98.2890289730406
98.3264702931004
98.3476738336016
98.2794459628376
98.2259421859756
98.2661661855259
98.2227428224069
98.1543643081943
98.2133221799422
98.2812324091261
98.2434694881434
98.1965926994012
98.1821697021527
98.1655336049418
98.1963809202828
98.2060370664227
98.1668853209175
98.2167637608561
98.2595863914415
98.2340997857761
98.2349676899194
98.2224416119389
98.2432815735408
98.3176003390797
98.328558058116
98.3388820313955
98.4014128680027
98.4886281914229
98.506376013928
98.4926848906865
98.5625204175682
98.5634998378548
98.6230498900669
98.7283833865857
98.7551227383936
98.7133069465455
98.7139948126867
98.7534821187724
98.7807468222336
98.9077955398436
98.9209603830951
98.8696072448399
98.9453115116374
98.9993992038549
99.0837487082474
99.0177601564201
98.8653993298815
99.0491955202845
99.1249604094305
99.1140591611
99.2877202120156
99.4207105108858
99.3914099480104
99.3262951625239
99.2446660693776
99.1858586582978
99.3863007458998
99.8049255190142
99.8593824641983
99.4994068246629
99.2426252969198
99.2186623182419
99.1739768010892
98.9767338949558
98.9892209842901
98.950673904169
98.7248643010331
98.6543596048524
98.6703687604708
98.5689421383456
98.4998748674059
98.5559569141176
98.6033732967716
98.5973645878388
98.553143019714
98.5642302668056
98.7345088591698
98.8396724113584
98.6257617618652
98.5002978129222
98.7237203748631
98.86687318967
98.8605268658128
98.8030861199792
98.6848588060455
98.6927432165117
98.7087611812247
98.7907873487283
99.1691103791826
99.4697081094262
99.4060830357045
99.2391400813446
99.3055920311454
99.6021331493502
99.3889818937647
99.1276190653109
99.423246046143
99.5828008782622
99.2929173000812
99.1506367583506
99.2223357446634
99.241681504889
99.2907000439774
99.1906190400254
98.8628299850103
98.8077672713082
99.1455335403688
99.295535232313
99.0633267404824
98.794282241476
98.7683536763723
98.934508695135
99.0431925047952
99.0154271805244
98.8947900683925
98.9004094213546
98.9057778050042
98.8117070341718
98.7671889857654
98.8174276759466
98.8113129874368
98.7486299827143
98.7166738109002
98.7127404206983
98.6699907246868
98.7113081596931
98.711822894072
98.7105601997459
98.73585591034
98.722770172208
98.7125526161243
98.7104486334318
98.6621318295893
98.7156365829861
98.7093757692445
98.6933500615318
98.7196612932026
98.669040688529
98.6058766551153
98.6333509729525
98.684316131541
98.7029163931287
98.6335516962054
98.6068705117844
98.6099678333171
98.5847866156223
98.5665075317833
98.6006426418315
98.5526699470513
98.5458146119897
98.5575716064168
98.5038882131985
98.4675219208139
98.4786203824347
98.4083886548452
98.3172540236338
98.2404281103864
98.1896369981225
98.1098396858867
98.0418206924978
97.8955215159761
97.65890533717
97.3022520852211
96.8882435334504
96.2258962129837
95.3386940933477
94.6721091510231
94.3447398695202
94.1362472087242
94.0677298376794
94.0676388711807
94.1176178302186
94.3719701427324
94.8021112904481
95.218564557508
95.5844384202273
95.9535356203282
96.3689237979207
96.4819751651327
96.5176089851931
96.4598262921027
96.160572093361
95.2301149865743
94.0288461070115
92.7302581622339
90.1827529037141
86.9906482066782
84.7603908379144
82.1699885861047
79.2669227434419
76.8592337538226
74.568976479962
72.7238337380588
71.1161332447845
69.5234199029463
68.8400211092874
68.5115720337296
68.3888671156955
69.1733333200189
71.4723672396721
73.7752456584599
77.0976264408489
80.5718215216975
83.5252473736185
86.3021757080181
88.0070435507675
89.6069931723508
91.0172942291652
92.1685389541742
93.0787398853337
93.8622295541467
94.44219071857
94.9356089129216
95.252675843594
95.5998687555104
95.8959430772108
96.1322190151031
96.3055741168328
96.4203011613601
96.5829638384039
96.720887087409
96.7968474221663
96.8737976061716
96.9327016385993
97.1219682024321
97.13041029679
97.1509210219343
97.1848381185351
97.2184664565651
97.1526877608987
96.9971019539981
96.8076140918188
96.73780818134
96.9855186810503
97.0941647922463
97.1003193258143
97.1380266666761
97.1433768554618
97.0990889444603
97.0036386094735
96.9353556441431
96.8471105592452
96.6429300365705
96.4160237366402
96.0945847964161
95.7146644298627
95.3370399503559
95.1633784828716
95.2630201745971
95.4102027219812
95.3619631645264
95.1124666605815
94.7326661425751
94.4326204753237
94.2860219653641
94.3237584706624
94.4768335698197
94.693932274371
94.8341096669018
94.9451779472648
95.0459898758829
95.1086039587689
95.0812776404461
94.8405600936076
94.3859201637316
93.5819524628784
92.7201451682718
92.1006825795092
91.7256128641215
91.6221610284207
91.7888095179709
92.3530832988697
93.2900884265655
93.9418615830947
94.2248845565731
94.2275167136799
94.135511009976
94.0502090735216
93.8717817275513
93.573630766965
93.2835003378206
93.0801432293301
92.9238678396479
92.7741352820542
92.647725177807
92.5158603433131
92.2740771227914
91.7014627126896
90.3056155945832
87.2915091908256
82.3738857192129
76.3830227946595
70.1117433754198
64.3050082441197
60.6026913387069
62.0579272599241
69.190419623201
77.3137168020207
82.2516294446573
84.4620746469266
85.3180784931237
85.5237799576747
85.4664140712378
85.4450827673302
85.5889326944342
85.9646853351363
86.5955214713238
87.3776460571374
88.1711198896458
88.9071254557668
89.619158911163
90.3153274567603
90.9950424380985
91.7568213858948
92.6399430156812
93.5258502961362
94.1939235998114
94.4298477194996
94.2714829922588
93.877961289707
93.2676103532343
92.3926709422884
91.2683703202516
89.9596074610042
88.6319371658287
87.6282777910659
87.2948312319605
87.6177154768569
88.2400719097646
88.7855007100506
89.0211384787331
88.8511533895631
88.2378788556823
87.3174001025034
86.3138279255327
85.3210187354726
84.459531405823
83.8780763273416
83.6019973567765
83.5186586594943
83.4315074011547
83.1678128940002
82.6154121355773
81.70382920136
80.4171257031123
78.8807633878062
77.2814156536181
75.7615317139681
74.3793985482056
73.1826945763423
72.1932715814522
71.4334646071321
70.939483187823
70.7858288439009
71.0322709062219
71.6116687409732
72.2759731478153
72.7645068699059
72.9065789496807
72.8363274403378
72.8072363666662
72.9488313886164
73.279298597025
73.8450352192831
74.4800796997828
74.7979426241235
74.5684837638321
74.02479008074
73.6442590929514
73.7901335926739
74.4999604779945
75.6522011104109
77.1394544896871
78.8113158538825
80.4551385936123
81.9971592477792
83.5237360186341
85.1610583420031
86.8173080151297
88.2433717495759
89.2038800372831
89.6359238351823
89.6733879193642
89.5662551877757
89.6104992330413
89.9238613479869
90.347456649549
90.574279591942
90.4028923609398
89.9302179922869
89.4029680752714
89.0041214283202
88.8235998386061
88.7698799782987
88.6395441330136
88.3464733237374
87.9867534741897
87.651437569328
87.2767239308628
86.6505295159377
85.6361009040744
84.2774312614971
82.6675727156737
80.8923784595311
78.959616228991
76.9163138795221
74.7438409039681
72.4061812057517
70.0463923663014
67.7911975912248
65.7982702511501
64.3060382508577
63.4662135176915
63.4250695782061
64.2388104771757
65.8320742329742
68.0344085898451
70.775117716843
73.934980044765
77.1470163721179
80.0957324085841
82.5759417042764
84.4250286286447
85.8273644879502
86.9410984152494
87.7601637974216
88.3999871763852
88.8574941968652
89.2064290764118
89.5986237994461
89.7566193948755
89.4246382480872
88.5254094347728
86.8786718111309
84.8476631066523
83.3625807549057
82.8068058388323
83.1164539654483
84.2953034951289
85.7247560275516
86.2970181662873
86.0552707683064
85.7523638620809
85.546060827921
85.4080291998621
85.2968099873849
84.9425290038737
84.2945822168495
83.2784195669808
82.0426387098146
81.3091063815646
81.0870002387161
80.9249128894941
80.732688170381
80.437038086116
80.2038013133716
80.1331455147024
80.3755690729987
81.411883236079
82.0450463845972
81.8798997639408
81.8537770394952
82.2979472235318
82.543082291687
