900
3999.43349933624
648.556783676147
1
128
8
98.8134624944707
98.7756185776621
98.7541311652655
98.8052726392365
98.8593026016247
98.8401572398517
98.7881973081628
98.7456424956017
98.7258920557284
98.7670931112731
98.810197677452
98.8307274666494
98.8569435871946
98.9087278248105
98.8752121726813
98.836817296326
98.8564162511436
98.8962043966962
98.8981868218814
98.8897598082885
98.8799382009222
98.894810468469
98.8318072911226
98.7948962493195
98.924904556512
99.1319375428085
99.0555923044229
98.8770836659042
98.8961707321295
99.0215513483368
99.0805494566505
99.0150540651186
98.9692270436441
99.124519788996
99.1879637292676
99.1022912250916
98.927537335923
98.9917016430117
99.3279845583391
99.2478993006977
98.9288973167177
99.0347880558659
99.3010507455555
99.2613361913917
98.9522980052417
98.8688357294904
99.0394007037587
99.2630523172419
99.2760538211906
99.0665982699257
98.9438998237032
99.029524424924
99.1868921474584
99.1681028372983
98.9204845550425
98.7690570793918
98.80116202227
98.9591377988116
99.0179676988212
98.9295173627701
98.9340112794197
98.9741719405176
98.884958244883
98.9147873752465
99.0299427216253
99.170872643924
99.3348075888806
99.4317448601673
99.2575023211498
99.0656104141338
99.1108893384272
98.9269012248457
98.7948334802427
98.8203588925575
98.7362110572301
98.6643802115047
98.7574849187269
98.6247379673013
98.3130112052803
98.102967994769
97.7389904014574
97.5643617923138
97.7479460724494
97.685710502993
97.3609653646387
97.4396090539009
97.5319657226977
97.2015983028815
96.5865245944359
96.0208903333287
95.6761113618652
95.3110443288467
94.9630106073243
94.7803712935099
94.0793520425679
93.2943154616543
92.9476311326492
92.6713310818363
92.300354534764
91.6365370920116
91.0564625159735
90.7427850461439
90.1579133664083
89.6038382831465
89.1831661508152
88.6972898129234
88.2217685705368
87.7219217076029
87.3100761000477
87.0521752475776
86.6033823826895
85.957954872974
85.4984851691613
85.1114338003479
84.8422009124757
84.5444037737264
84.0586526786202
83.7043361899712
83.3587460922191
82.891728941024
82.4435455358612
82.0630069322797
81.6656313551262
81.3407967665024
80.9657427116327
80.6303910815028
80.3444160608422
79.9254143223032
79.6180225269668
79.3198693791518
78.923825402127
78.6218459619277
78.3800369429289
77.9893586269869
77.60140900688
77.2512067210013
76.945097901532
76.630545753024
76.2687963601563
76.002737500502
75.7740109646889
75.6404196110882
75.4582177379998
74.9914447908923
74.5760221470364
74.3210936855081
74.1208072097348
73.9961409569425
73.8214542580259
73.6065891072328
73.421635765857
73.1451537677744
72.935824098749
72.7862832939604
72.5762393863267
72.4642373839245
72.4098315313217
72.3111483572368
72.165105635862
72.0804856643033
72.0901891508044
72.0524920672051
72.0032044398523
71.9696987903647
71.9918866661464
72.0671382924987
72.0773711050078
72.0941623404673
72.1789481480876
72.261598397842
72.3099239059361
72.3817017639542
72.534516851566
72.6937627553466
72.7681461524486
72.8227817090804
72.9580634287318
73.086583657717
73.2743966009524
73.4360651720665
73.5158186255233
73.6200320835386
73.7337595256648
73.8454066542694
73.8991231724682
74.0186164919788
74.1946604914232
74.2532979054875
74.3243880291304
74.489739302523
74.626158744241
74.7233389717391
74.7915840896846
74.7984815077287
74.8853039621322
75.0574561188323
75.2573565573454
75.4435712688925
75.5361979315954
75.6887457148252
75.9013229897349
76.0693211637492
76.2830939988831
76.4972629856987
76.6428154830044
76.8391349567364
77.0964242909069
77.3438296436058
77.5262841231769
77.739463278569
77.9418059660315
78.1603449412873
78.4740904012951
78.7821278439788
79.0193708159806
79.2380942833143
79.5092966304542
79.8052796756054
80.0596481568635
80.2585557915851
80.559780227209
80.927380710993
81.2642746992472
81.5372602736401
81.7387419141545
81.9566960413906
82.1861899452161
82.4849521186175
82.8505249597552
83.0561604679435
83.2237532600268
83.5270287026624
83.8092354921638
83.9848525785778
84.161609264995
84.3909962819513
84.6614263628329
84.9374256189086
85.1494926284665
85.3141163681133
85.4663897895223
85.6921777238967
85.8914364166253
86.0397868867745
86.2249197183645
86.392074027379
86.6215798798427
86.8937668098871
87.007532006648
87.0204556599996
87.2362809440101
87.492329026661
87.6364713161094
87.7667287499392
87.9423768606321
88.0947335681055
88.3019091338003
88.4922611130767
88.5877670551534
88.7030357683971
88.8592344458467
88.9528448768376
88.9830135146426
88.9922903978242
89.0864668062701
89.1995798519777
89.2927612493986
89.3910711427602
89.4971486013452
89.6317705132683
89.7280405018321
89.6741856896777
89.5106299088706
89.25931812903
88.9893851323644
88.6046092988351
88.1087303975954
87.4906973932298
86.7341709789312
86.102992570751
85.9801437648164
86.3065185161934
86.5229106444417
86.2021068759052
85.2856541920115
83.896540269279
82.1252930674041
79.8342857986553
76.8311429671802
73.7259960065476
72.5794983949979
74.9595538601117
78.959184678809
81.957826071724
83.621285396777
84.7184636015952
85.6960254256711
86.5651722848395
87.3027967731806
87.8498252632779
88.0793799554062
88.0388496094207
88.1265490729835
88.4048622618398
88.2972667167432
87.5161049615956
85.8993195441655
82.9212635686467
80.5069946167331
82.1179338762591
86.2144008431735
89.2736537048921
90.8348888781196
91.5757140181987
92.0439736278489
92.4319787031578
92.7393038050183
92.9338415705862
93.0690147101205
93.2764717334595
93.4873821432087
93.5913920883915
93.7526372484499
93.9207868985612
94.0803836413931
94.2349287023338
94.3303486569877
94.3377707433686
94.3993919539796
94.5526504226997
94.6344680917357
94.6740525066834
94.7504993688311
94.8056338880901
94.8421885645887
94.889572032076
94.9815650900935
95.0254353707094
95.055518312256
95.0644650707399
95.0670173762235
95.1221129754983
95.2389904517507
95.3101747004519
95.3701297975726
95.4136683317199
95.4429183957851
95.4741281714689
95.5345082786623
95.5931924131727
95.6443629612604
95.6833456390687
95.713735388473
95.7158635561249
95.7909650784621
95.8584393908081
95.8785935935825
95.8847108515935
95.9320387572851
95.9673081448336
95.9932681494001
96.031349112281
96.0878555571324
96.108134568368
96.1582258514375
96.2509317593487
96.326020678559
96.3518714927379
96.4204632235853
96.4566161194177
96.5284832460098
96.6215674516699
96.6606057422783
96.6950111393648
96.7363311535696
96.797502218635
96.887426947021
96.9296500142678
96.9638357549211
97.0126185143382
97.0424275824808
96.9524591211015
96.9625735274495
97.0483832291014
97.0755057674767
97.0428751818035
97.0879794290391
97.0931670396424
97.026574648179
96.9100344970859
96.8944368033619
96.9777773046683
97.0487873926773
97.07771883493
97.1408211738712
97.2008745436852
97.1740665821349
97.1670208049434
97.2315580081548
97.2294179403327
97.2271840991863
97.249582617627
97.2649675869485
97.2591993130907
97.3022670202266
97.331359510057
97.3150414014337
97.3026576806041
97.3105164066082
97.3318792749153
97.3650844053367
97.3287444590034
97.3139772744983
97.2841034006639
97.3116539877366
97.3544346671994
97.3267101394953
97.3054383024413
97.3334358475333
97.3349127268072
97.3953227663988
97.3805086466109
97.3294074790209
97.3547540855263
97.3380946549838
97.318963263103
97.3153729791966
97.2841981809162
97.3267922259104
97.3512633163769
97.3252807893327
97.2877763680478
97.2909226599363
97.26520946853
97.2829845339461
97.4037263121923
97.4978078273062
97.4665619073654
97.4004095530442
97.3073737493309
97.2247217165673
97.1345328865239
97.1133641749405
97.1939806474824
97.2570545887183
97.2569724232473
97.2316712401438
97.1867591472896
97.2053768983176
97.1955786968959
97.1703408146783
97.2340155257624
97.2917764135815
97.2432995468331
97.243382459102
97.311427923458
97.3808732660283
97.4178790379945
97.4237982264914
97.4768876554448
97.6125340890265
97.7040325870345
97.7486473910405
97.8340546853172
97.9672940616265
97.9877661889697
97.9454339513663
97.9188761929611
97.9451990762811
98.1107992096534
98.2610047735013
98.2496953494062
98.2812181173391
98.3431815517576
98.3564543527962
98.3676841156099
98.4033246131851
98.4137819228725
98.5121165018865
98.6861068395684
98.7014669939198
98.6150955749734
98.7439490034197
98.9260381558878
98.8907944536343
98.9091364295095
98.961221109767
98.987957591952
99.0565279910213
99.02787090548
99.1708757229447
99.4452682453309
99.6844723123578
99.9058630236165
99.6393391739046
98.889504912211
98.3752572357858
98.1749845693547
98.130438310604
98.0995262330312
97.8001465180581
97.5595985593721
97.4781694573168
97.4526332367049
97.4634523832053
97.5212730809855
97.566154514231
97.5158073892045
97.5555848695799
97.6575858096191
97.6468920818977
97.5445312156149
97.4928103521894
97.591375819556
97.6903921652949
97.768346007152
97.7829142346235
97.849084475677
97.8807857053288
97.8870378629981
98.0062090188335
98.1676204206293
98.2808498486573
98.5627047839616
98.7750315966924
98.8223139603417
99.0363916423393
99.0722127401639
98.8151933366878
98.9671514941091
98.8725748501699
98.8248484163927
98.9223314373131
99.0464716567575
98.7544025297483
98.3190965482108
98.3267024034101
98.5930055614782
98.4855814789584
98.4699226099716
98.7035530356218
99.0124159676073
99.0656597480604
98.8910499804022
98.6617217453872
98.7582742909082
98.6563443836992
98.4241295570105
98.3683536564001
98.4747293109583
98.3914176914282
98.3371696296416
98.1378966897194
97.9923254423665
97.9066276016011
98.0206764152126
98.1592840168714
98.181726696788
98.0239549105245
97.9491057728776
97.9306062817553
97.9048134515883
97.8268293887596
97.875493576387
97.8892581207396
97.968974298025
97.8838090032385
97.7736997589344
97.8087225816707
97.8884401703413
97.9001371532508
97.9292968757376
97.7169328298906
97.6465581701716
97.6770816635941
97.7436329144029
97.7851323679867
97.7929433526015
97.6532438639477
97.6186011916767
97.6181884879795
97.6428515793539
97.5785575997558
97.4991842959929
97.4273826012686
97.4174829175063
97.3329399570253
97.269367974801
97.1959059207202
97.2095421481871
97.1422277630891
97.0872250885925
96.902541007493
96.7339738923025
96.6147830358178
96.4492652872652
96.2690474097853
96.0852740613551
95.5251054813629
94.9447363630874
94.1969934526355
93.2518197653534
92.4883399326794
92.0279279868864
91.6252275736636
91.4499771696337
91.3098099589053
91.2398471960636
91.2393842407324
91.5508467851345
91.8523409995556
92.1141420939382
92.154535706129
92.1028419137186
91.9892658277184
91.7294051904914
91.199419029927
90.3054223220241
88.839495462375
87.6044999051259
86.2946622270385
83.7484261542621
80.5780057201505
78.3111266883399
75.4297286550263
72.1657099653028
69.3182377556212
66.4955276719907
64.04088827016
61.643493936186
58.9779660075961
57.4970075045656
56.055760663192
54.8624813181059
53.7951265693924
54.0299814606111
54.5481315953504
56.0066748217501
58.1162913704136
60.1376389341157
62.4120293203525
63.8901018608155
65.034509745029
65.993395104208
66.6888879075401
67.215890376071
67.5620210057443
67.4722419775556
66.40707089003
64.2925096551563
62.3336996796141
63.2120006850602
66.4871239518942
69.6701421477847
70.9377923381959
73.0361222922495
74.4727168280799
74.053808661993
72.5384810469984
69.2309370252556
66.6388835838723
69.4529662139739
74.0155551186991
77.2209439741656
78.9078919017884
79.9397663722623
80.5368977768179
80.8157575254765
80.8933286672155
81.5135884083114
81.8565979705159
81.6722350075808
81.5719821058071
81.2921839463233
80.6773416585968
79.4738056110665
77.5279351068517
75.0382138410566
72.588743451173
72.0814521591543
72.7083513027429
73.5115356018624
74.1276841082792
74.9374293910909
75.3512820480943
75.553998565062
75.2639715652966
74.1743822175859
72.5652724065627
71.5444054256102
70.7278898642449
69.7517750123357
68.5468640986525
67.7904057235515
67.4890527304778
67.3215169878077
67.3665144446856
67.5433931638366
67.8241697235796
68.3824383056135
68.6266597679187
68.6400490297314
68.5035580952923
68.2250475761811
68.185427401447
68.4158592096918
68.612309840906
69.0364098603031
70.0192051618811
70.8104032635099
71.3153360778863
71.8658961908384
72.5810482297655
73.3930740939189
74.3819069730238
75.145589416168
75.6157576341117
76.0296427888093
76.3339313946071
76.7411777319777
77.4602455737364
78.3188171282074
79.0523151232622
79.4261600205208
78.9850550252125
76.885815788944
72.7590915918668
67.2702567125907
61.2552014844251
55.5224457923234
51.5203161009683
51.8999520671688
57.2028260581161
63.4251880731011
66.89778336077
67.9714203644397
67.8883792183923
67.3277239932824
66.6029968281057
65.978016402023
65.5899325372792
65.5389142472904
65.9402983325734
66.8028492743772
67.9453296174069
69.3061530594028
70.7891894254557
72.15427204677
73.5327306802592
75.1318363403226
76.872014581196
78.5676009502177
79.9781347309663
80.9376527894776
81.4790583174844
81.6854037727799
81.5411770601955
81.0511293684102
80.2624329119794
79.2406222144846
78.1520565160411
77.2737444153919
76.8740240388859
76.9775030438506
77.3299240876013
77.5828483101979
77.5070305164163
76.9956364855166
75.9984539404238
74.5942723576956
72.9495330498393
71.1869811169883
69.327978015307
67.3410254073126
65.3873576909736
63.8126078330184
62.6338580455782
61.5285997351233
60.2916444726956
58.9231954517364
57.3764574438266
55.6505895331145
53.8298853055115
52.014764244755
50.2477929918523
48.5739488519107
46.9850972806926
45.488901554269
44.0948204563692
42.8318054641275
41.7436222014138
40.9352748582703
40.3767525436866
39.9707015358863
39.5617143609398
39.2116825827737
39.194878970396
39.7603280853897
40.9179678718628
42.6538421064156
44.760175045943
46.7695451184025
48.2678507323537
49.3835849043409
50.4559932716831
51.6973899277365
53.2085569913108
55.0192781787814
57.1071519715952
59.4631641932001
61.8964576319829
64.2166805489304
66.3419532484526
68.2962236027389
70.2076059124173
72.0786313476524
73.7103538343635
74.9745685533052
75.8168571246827
76.3046460282709
76.720811755343
77.3112938381435
78.0012655585922
78.4815378387518
78.5993581313105
78.4097951765806
78.0476282736857
77.8123534911611
77.8353104215595
77.9529680292699
77.9316246906393
77.6336383794237
77.1687054209562
76.7188138470646
76.1742893723199
75.3197470875948
73.8687482599431
71.6993858341412
69.2770497582895
67.2600271649351
65.7276528628972
64.251475638588
62.497051328472
60.420699062152
58.1999141104875
56.0483309522807
54.1147761527739
52.6244997867702
51.6967057828455
51.292773126649
51.4649153061841
52.6153788381139
54.595076921795
56.9604936274058
59.512847464716
62.0207311924285
64.3024685349687
66.3148033318741
67.8785803090721
68.8711857338941
69.4949055308406
69.9582176018626
70.315921874917
70.7136376992239
71.4045861019658
72.2984376238377
72.5734201082646
71.7115312599269
70.1455940410332
68.2575528979098
66.1732907779377
64.5416804974064
63.7837494779705
63.7398698838278
64.3658513279473
65.141989747798
65.2855057608728
64.7209379501924
63.807011324777
62.9135069498987
62.5794706250668
62.8097152965191
62.7477912242739
62.1320833228424
61.2200082024413
60.3493652571906
59.8469201214663
59.3109474046728
58.6724325244589
58.3171468410073
57.9359598290663
57.6755539432216
57.7152328372379
57.6500934383094
57.7490422430987
57.7857103799475
57.4535713648984
57.0739843607617
56.8423631962115
57.0281112021006
