900
3999.43349933624
648.556783676147
1
128
8
99.3344106483021
99.326824995634
99.3527867597376
99.3239310555883
99.2713312155195
99.287674962773
99.3605637547407
99.405088821256
99.3355299298834
99.2880069885128
99.2532672388858
99.3088323193403
99.3434839923955
99.34579878947
99.3812197580165
99.4313228130043
99.4098374985969
99.4472517550614
99.4377890360607
99.4014459437542
99.3774249605863
99.4358521763588
99.4301545094238
99.3866877924185
99.4011195652109
99.6267517525455
99.6927158054121
99.5505409521505
99.4468295853227
99.451902618517
99.5442342007662
99.6278168911411
99.5531297696916
99.5610994577034
99.6969497139172
99.6785632000948
99.5326831063736
99.5990946533901
99.8570568937109
99.9066147650894
99.4727297785829
99.4571885319798
99.6685697127469
99.7352634037096
99.5269946781621
99.452300255824
99.530868952461
99.7526270594395
99.7806216614632
99.481559621722
99.3531041216105
99.4505464556106
99.6123077225201
99.6809401782512
99.449905840663
99.3148299501654
99.3118344559743
99.367426832258
99.4102964559755
99.3833959893071
99.3574471160109
99.3606292926544
99.3106207643767
99.3891620297709
99.5263298760962
99.6255406202197
99.7433289067597
99.9890997503198
99.8796635873154
99.6310671372014
99.7016771298831
99.6987725381859
99.4353487508071
99.3405381600595
99.2208972301904
99.0986340135238
99.1780483105194
99.2345019755161
98.9311574742511
98.6419597166731
98.3792457403381
98.2033231276713
98.2776636363644
98.4070698940977
98.1677724995534
98.0118193396037
98.1349102263932
98.2472262289181
97.8165653459129
97.1765558089068
96.8190127842636
96.6701143461955
96.5271569502008
96.3364569776425
95.8527790105044
95.3581835972798
94.9630638972957
94.5579063379768
94.3204984117925
93.9671008387105
93.4560008374895
93.1688424755312
92.7695915272026
92.2862393735022
91.8839699926895
91.5003534797506
91.140355103482
90.8019429555567
90.4662789916822
90.1279728550527
89.7664060162761
89.3362548252612
88.9794952600761
88.6937344941201
88.2992589066348
87.9197054258402
87.7466001874921
87.4455144364366
86.9909232350398
86.627280169468
86.3752274964194
86.1300693844543
85.8177331394942
85.4929933378231
85.0840148269419
84.6781561569751
84.4531504425779
84.2537180115416
83.8925051497126
83.4872614473773
83.1681425864642
82.8927484813479
82.6532517013191
82.4562856293128
82.1712283015804
81.7858576570057
81.5081963670086
81.2905290800554
81.0442079443699
80.7491764753506
80.5186303194052
80.3197283189356
79.9765594069927
79.6409959760141
79.4194232182169
79.2443288011923
78.9998693193875
78.7210805379816
78.5572289454544
78.5048630678305
78.4400377319205
78.1516739649422
77.7110237990189
77.456860199
77.4570210474565
77.3659056192843
77.2472763015508
77.1949022123429
77.0263689505573
76.9136193782432
76.877068659927
76.7943813661584
76.7735781270175
76.711875206049
76.607294180272
76.5915487857907
76.6395462629712
76.6395481223076
76.6121694750682
76.5925835573426
76.6158856105226
76.6394997809402
76.7142594846032
76.792368527617
76.7797898218689
76.817371313367
76.9159722790787
76.9926510024766
77.0783765129892
77.118651026867
77.1040146269052
77.1139919351692
77.2222691306451
77.2480541384268
77.2374567316698
77.2815049189438
77.3360611746333
77.363504963524
77.3914721201893
77.3771391616321
77.4097793050713
77.4459652663805
77.4822322747206
77.4808943100534
77.4228499591269
77.4897488822296
77.6598703957514
77.7527565566545
77.7796238631086
77.8110345878159
77.9377206047677
78.0459071544939
78.1238633063168
78.2278015000446
78.3208465658028
78.4058590286225
78.5489016949098
78.6501342733223
78.7472670266516
78.891156265141
79.0802265985331
79.2372548893572
79.3285403456935
79.3824033565016
79.5371853338783
79.7469868086423
79.9064213889827
80.0351173219418
80.1562032927047
80.270417610801
80.4295137573589
80.5739328288582
80.7797928987181
80.945780564507
81.0949368971634
81.2090843578094
81.2666201506297
81.4855046898321
81.7319133063904
81.7312400256431
81.8043718714001
82.0263122949752
82.182493948494
82.2686886735663
82.3445894161044
82.3647188360794
82.4775526378148
82.679107832421
82.8519651134549
82.9631830066611
83.0502348851273
83.1573675903562
83.2436011351027
83.2202642746236
83.2782330108993
83.3695072045415
83.4786621726722
83.6966906985661
83.8198142736108
83.7685277264536
83.8495801688539
83.9787118515986
84.08157155465
84.1837192363526
84.3293998259403
84.4437245186316
84.5586049148742
84.688542201877
84.7764710422483
84.8840159031687
84.9851767374979
84.9214778665209
84.7489171676053
84.4488961154846
84.0157715452215
83.6933742858082
83.6886370965028
83.9154562844449
84.4019941317451
84.9496997428373
85.3267590156872
85.4420036834746
85.3096673979806
85.0528876034661
84.7093309392195
84.0756139450984
82.9513076658557
81.3240015234282
79.513844512751
77.9220901908386
77.3867604543769
77.9897932282545
78.5485003049016
78.0865534163496
76.3940454961839
73.5346971629496
69.9275974889293
65.8285311040326
61.2616952682275
57.1309233285817
55.3532579379616
57.5166470880443
62.3721159256936
66.995121299072
70.2525895588694
72.6634859080605
74.7474876163817
76.5745390981445
78.1841819140582
79.511414434864
80.1974989534344
80.0094294165113
79.7231592316524
79.9799900476456
79.8716091572729
78.3931553925595
75.2607432964087
70.2719286287063
65.9243945580361
67.0580355914058
72.9195548158686
78.6478476568894
82.3592583309653
84.4577487729821
85.8117319538315
86.8963742262572
87.8318110634897
88.5419791251158
89.059621232187
89.5411620945065
90.0003723144865
90.2923040869534
90.6149067426474
90.9529434577969
91.28697996913
91.5946754364047
91.7971313467101
91.9154252439015
92.1188108159915
92.3770323892133
92.5594866518282
92.6357535963595
92.7262972270781
92.8775888217299
92.9953969348633
93.0958903836702
93.2667619011
93.3623460531445
93.4367637028564
93.4801371938832
93.4947952418431
93.5915025857605
93.8000383093325
93.936005898539
94.0214200476733
94.0958994406146
94.1853320681302
94.2820271526984
94.3711532932145
94.4446295428647
94.5235710648756
94.5651091737564
94.5944802327403
94.6209293023264
94.7376677178973
94.8057088520923
94.840920375548
94.8950825254261
94.9861200703204
95.0578816352412
95.1266407300508
95.1890746369182
95.2387575229679
95.2881571867706
95.3962885175859
95.4826811389252
95.5700695244458
95.6543322267288
95.7548953343525
95.8084112065197
95.8902995044586
95.9616800389476
96.0574571950331
96.135404350389
96.2102764702547
96.2529530575633
96.3342288962149
96.3845542170931
96.4186364425304
96.440707269577
96.4872025784927
96.4731379125021
96.5285994813877
96.5921226062354
96.6124899942427
96.6702854253276
96.7141849938378
96.6798100098219
96.6903996791981
96.7464646758855
96.7963523324042
96.8243161694365
96.8722051654075
96.8440296749703
96.8333903382673
96.8175107639133
96.7776687286524
96.7851887922807
96.8909583216444
96.9277283648537
96.9195639800079
96.8857516618213
96.9141538901837
96.9292577603163
96.9816596490689
96.9688534194697
96.932054114317
96.939782797524
96.9894856945489
96.9943965919716
97.0268389518094
97.0128362965008
96.927595131432
96.90035631806
97.0093286896887
97.0296794940278
97.0332364437619
97.0546956615503
97.0590876839072
97.0629219864574
97.1032531515219
97.0727061354859
97.0771186537378
97.1031757858348
97.1045051597616
97.0916504203656
97.1093023884183
97.0256986901546
97.0095109333572
97.0116522242394
97.0084238379695
96.988792799791
96.9662446290445
96.9810933257773
96.9860236881569
96.9575820157296
97.0083195430034
97.0538929715431
96.9636055621021
96.9316725239525
96.9479691495683
96.8316368469891
96.7778181484921
96.7606683333718
96.7331168642802
96.6933031795519
96.7335094587705
96.7779718592551
96.728015944091
96.6313961595984
96.648560159924
96.7356860096543
96.7746168886376
96.7942125474066
96.8200666312728
96.8173830599103
96.846902542647
96.9190815288557
96.9888936814764
96.9745117292342
97.0478920396375
97.1724265701362
97.2684391376695
97.3277588154188
97.3933424425
97.4215386003
97.4744807413035
97.5607858436323
97.6828010655927
97.759151966784
97.8163439288538
97.8925896025974
97.8790498152893
97.9275270346435
98.122281050016
98.1878764425894
98.1760754185211
98.1268550736921
98.1908211137113
98.2323586996576
98.2492503971164
98.4408981347025
98.6407820806535
98.693748157182
98.6988244464416
98.717220127859
99.0432078924808
99.1924301451143
98.9905878480987
99.0105759349805
99.1766765317302
99.1546384032808
99.3212377355404
99.7127271981216
99.5163344448734
99.076226722406
98.7453125604897
98.549099832263
98.459436545848
98.1847477586413
97.8674940221558
97.695272806648
97.6382877726885
97.5883976298224
97.6018699176655
97.6640981916812
97.6557234692511
97.6280135427209
97.579351344132
97.583803774823
97.6578642510087
97.6480746259882
97.6142446699324
97.6189933175336
97.6748580564352
97.8147137363821
97.8898586452689
97.8811798827801
97.8922496633166
97.9718017051036
98.0519460900845
98.2536806836205
98.4275676701728
98.6668365627479
98.9332291913389
99.0892979978657
99.1303680059114
99.32096508863
99.3942017252366
99.2371120021649
98.9264559510495
98.960484793388
99.0882059084166
98.9115489877215
98.7401439599351
98.6683591586299
98.4377208837932
98.5118862492114
98.7020723556417
98.8786692927277
98.8234369445108
99.0003138946734
99.2751600879101
99.2768547539576
98.9778610421792
98.8918245499543
98.7658913611557
98.7522516730842
98.8019157540286
98.7447510902681
98.5009444917431
98.5312590178559
98.4532250909613
98.2558196283521
98.1501395498918
98.1562254843921
98.1004761647389
98.1538736226986
98.0644659726513
98.030596047363
98.0211324963904
98.0671329148223
98.0493217024497
97.9321523769115
97.9079121836417
98.0319675396734
97.9547045075861
97.8916836473061
97.8333420686291
97.8321954828076
97.8604371775765
97.9337277417635
97.8426300406553
97.7349889069764
97.6843845783127
97.753570009414
97.7452653130247
97.7527604048349
97.7232963271044
97.6704538224038
97.5999058039778
97.5642188105645
97.5215204696477
97.4954902966836
97.4294119131612
97.3740554793765
97.2676599505155
97.2179896755862
97.1882500644454
97.15754017031
97.0500056601327
96.9911914505048
96.9029364948015
96.8388809377278
96.733383168575
96.647558933739
96.4998184026156
96.3636121280741
96.1757341791521
96.0077128006174
95.8469885522829
95.8148752285614
95.7749535187279
95.7629960127564
95.6126389828242
95.3976989851956
95.1344389971784
94.9795265381576
94.7692200806637
94.5445700299889
94.2540764903286
93.9787736962741
93.5981726663968
93.1257433474625
92.5428074267078
91.9370794113175
91.2707856177544
90.4661252542428
89.1963709595593
88.1415951321159
87.0921657343643
85.796871921777
84.3001056362766
83.0378769305759
81.6215227112227
80.2795411944748
78.9333364530934
77.592333061209
76.3470393549577
75.2245929460847
74.5089281581392
74.134966858407
73.5530433187536
72.861905414845
72.2877224009377
72.1239032725622
71.5626321686069
71.1982329506355
71.000762931376
70.8030675370069
70.7220317870499
70.4627332615922
70.0638789307303
69.4856757989317
68.3415578143503
66.5282127069237
64.0056272662368
61.1910279397798
57.9354785642433
54.3386202061485
50.6324488607963
49.5026467130846
51.7483631778326
54.7369594710797
55.8690961818348
59.590585365071
62.1640675030486
62.0750825713977
60.9746370226783
58.0842522720582
54.4977122575181
55.7642820809455
60.4245545631442
64.506709458954
67.0308502170904
69.139953481686
70.285288617922
70.2224055649952
69.8041455553814
71.1087495774548
71.4361699041966
71.1156500195757
71.2591832555871
70.9978103451437
70.6512357582275
69.3232984123519
66.9119466555795
63.9693183549764
60.0601726587453
56.7120508067786
54.8322542720816
54.1536502062469
53.6791595091118
52.8002531270135
51.4551944859357
50.404304650349
49.4859531405959
48.3784087825559
47.1516533807375
45.8060265304642
44.1132823217043
42.0011978396988
39.1141284737121
35.9454444634722
33.3454778331233
31.5829374958023
31.2313405408575
32.057917201902
33.6571628838859
35.8686495326678
36.9606470105078
38.5746890204421
41.1810635053198
43.864270577838
47.3870711929047
51.1249444062419
53.1349842332523
54.7371480497259
57.1478824299318
58.8433782566278
59.9250894296023
61.2105790501532
62.5814538514915
64.0037020588154
66.1521599393323
68.0032601312862
69.0092209762733
69.7935526014293
70.137545031475
70.4838002236755
71.3401056264892
72.4893563375086
73.5206286370967
74.3974176527837
75.1549102128674
75.9309662017421
76.5778219708046
76.8532759827264
76.7763102147623
76.4918541650594
76.2542885628939
76.3331800843797
76.4782467453334
76.3930601279631
75.9946484727823
75.4115045285538
74.8611990398882
74.4927778635269
74.2291697020074
74.073396842353
73.982717472218
73.8907809269098
73.9353339982689
74.3087318417303
74.6391568955249
74.7347413704735
75.4026353441621
76.961511242264
78.4776673705172
79.7394861197358
80.8262621764304
81.7313234706061
82.4717706635337
83.0593635771476
83.5619982039557
84.0720799947194
84.4643920609399
84.6556126948233
84.6721994342168
84.5922094815924
84.4560133277718
84.2068107661135
83.8213661378974
83.3647531097867
82.8204694883134
82.1072974726438
81.1899067899027
80.1080725388968
78.8763399141607
77.5111054068269
76.0248299662994
74.4326366017526
72.6662140414393
70.6102871640686
68.4619324769845
66.7774234985676
65.5660971394417
64.340713399027
62.9388452493262
61.5748885989425
60.3805203787281
59.3363860629822
58.3206145168884
57.3346578566252
56.376355691976
55.4616997298699
54.5707242435581
53.7262365859452
52.9100384290945
52.1223747089779
51.2589734609752
50.3743670732894
49.6289074312748
48.9799487299667
48.2738192961658
47.5687921346311
46.9694208201626
46.6952520673639
46.7633210825161
47.0979342478024
47.5743118091024
48.0765104128333
48.5229195381847
49.206653145106
50.4572015211157
52.3036730944554
54.5808667098155
57.1727756202316
59.9267199355441
62.7886429523067
65.5366512794806
67.9137885573818
69.7910629946441
71.1713339728032
72.137589759561
72.7843098711207
73.1892260417177
73.6303426067108
74.2680155979943
74.9603796939688
75.4482229547674
75.6847740127128
75.8787875728443
76.3058496486253
76.8486052384939
77.2610126105802
77.4502752408506
77.4336529874161
77.3904870060952
77.6006105998452
78.0209505518247
78.4507699339118
78.7374311524051
78.8260324412264
78.6415542725648
78.2249333893296
77.488269788164
76.0471087333573
73.6330932289209
70.8016312050326
69.7491557292343
70.3234686669507
69.1218795800043
69.4819925616032
72.9590789312377
74.8215159279082
75.099744759518
75.2291624046444
75.1396301805475
74.7297682491914
74.2869014757562
74.1635575172931
74.2475691957215
74.2693549638996
74.1128221624449
73.8244627818603
73.5719348298823
73.3191663243646
72.9134536537814
72.4505001013925
71.9215689611065
71.1047069293613
69.8305601033533
67.6848210527483
64.2738532760666
60.7810481227195
59.898260384127
61.7487558976206
64.3099038940603
65.9839096082503
66.6695731996659
66.7949107186306
66.5707202133486
66.1722775456404
65.6596388955651
65.0442777258094
64.3001880921119
63.0618940767286
61.1676246914814
59.1300149490206
58.2694188962808
58.830159945544
58.9085358702681
58.3218837592879
58.1119482065811
58.0197425044965
57.9295636676552
57.8672421472847
57.753618143907
57.5947285756376
57.2563213395521
56.9159585974915
56.7352075496472
56.4269897449436
56.1877017192469
56.0922246577239
55.7785863406136
56.015396703595
56.8893872400789
56.8991571153135
