900
3999.43349933624
648.556783676147
1
128
8
99.1290364578858
99.1806673468806
99.168304242587
99.1765066889471
99.1846197694902
99.1720160079317
99.150267479269
99.11680468581
99.1425654465461
99.2004630345008
99.2148163149337
99.1940377906602
99.1825807792759
99.1855155994045
99.2015486118637
99.2039546190253
99.2061840890797
99.2325117260496
99.2441346513326
99.2657146618919
99.2566076650583
99.2964277117826
99.2719285869173
99.2129257127395
99.2668522780087
99.4584661694194
99.5875430372689
99.4063437796826
99.3185770459125
99.3775608259767
99.3979382400996
99.4315335200139
99.4427886591819
99.4771358358187
99.5589244723249
99.5177845805977
99.401205514556
99.4005265889542
99.5595809503852
99.6539540774845
99.4028052567229
99.3831840660208
99.5684603555634
99.6542503963574
99.5211164632838
99.3892460280863
99.3949120316671
99.5259653200621
99.4949764482179
99.3879152560635
99.3681191636538
99.4340795726136
99.5570110907667
99.4635874731272
99.2669655932256
99.2362519823699
99.2645833875566
99.3111590715764
99.3459149223514
99.3442506158911
99.3179230558988
99.2994759723139
99.3263510966397
99.3885903889253
99.4480980668344
99.5729232855746
99.7824921122608
99.8966276338926
99.7269442404212
99.5855886128011
99.6913913219828
99.5852589804826
99.2971762183144
99.2645202306584
99.2446734182705
99.2217911880316
99.3238235039636
99.3333911723217
99.0584195343558
98.849891140952
98.7511840646487
98.7362255271052
98.8364194007457
98.6726390014031
98.1558748025681
97.947238333819
97.9505381975086
97.8766235157856
97.3659188443961
96.608192719978
96.0164867996024
95.5655268440807
95.2323830877924
95.0261276631779
94.745400896312
94.0882636232255
93.505232596615
93.1532807940869
92.8856227204687
92.7388991653004
92.4199967253534
91.9266629169428
91.5814369370879
91.345280947886
91.0855976203803
90.7452847321192
90.2251874714592
89.7485823991227
89.4243280634059
89.1443607365037
89.0096224236849
88.8015816698701
88.3035974790474
87.8388780467883
87.4693024429883
87.192340573
87.1021321997025
86.84398368833
86.3304489754162
85.8730400728792
85.6116564727013
85.4214687904978
85.1991995831446
84.8594289577923
84.4831495618951
84.1939431448614
83.8698402258216
83.5355159899265
83.3375088601149
83.160613963078
82.8434700418032
82.505689067274
82.2704598614308
82.0136487451107
81.7192443961597
81.4656243902054
81.1589696064786
80.8082994569507
80.5609713695974
80.3302890332467
80.1220358560413
79.9540092454212
79.677602186426
79.3699041619408
79.1124804252005
78.9239562480568
78.7096675506269
78.4494220279879
78.3324753708033
78.3168724817401
78.1864601337185
77.9827570777282
77.7490411229693
77.5247061998042
77.4393245777283
77.5036404921591
77.4755514197837
77.316287835224
77.1683618600562
77.1320685155298
77.1272625472215
77.1144761001239
77.1174422951589
77.1054661551209
77.1511100629993
77.2512518477723
77.3043536715171
77.3762227234274
77.4467082492978
77.4718166587635
77.6189629491722
77.8077559801342
77.87680750651
77.9895746689145
78.1451032070264
78.2080010882466
78.3009602318031
78.4861767981929
78.6888454672511
78.834304729021
78.9362030888307
79.0861133694249
79.2132119721017
79.2563461087957
79.2904956875319
79.396082228419
79.6506871673827
79.8310624507277
79.8201689315663
79.9222461511293
80.1594963375556
80.3076224267037
80.3606206927083
80.3904234787514
80.4376190952948
80.6225201819105
80.8578990455617
80.9664691812545
81.0111751638943
81.0958164667017
81.2245127112889
81.3431759468358
81.5491283112435
81.7293664816369
81.7463973786486
81.9046895009324
82.1704512282858
82.2959037123303
82.4348406776225
82.6435644761335
82.8632073280769
83.0660362111645
83.2583214202836
83.5240163938089
83.7893326485432
83.9924033066546
84.1648062130035
84.3934220016863
84.6263290637902
84.8591698788215
85.1593219738894
85.4239461608419
85.6345626107425
85.842088533396
86.0683023184357
86.3061468320616
86.5096085707314
86.7367798985649
87.0294193675682
87.2583104422951
87.4142803395429
87.6595433875954
87.8849418214736
88.0626557300868
88.2422591237597
88.4043068284516
88.6272999328481
88.8912202814319
89.0946081221258
89.2990655351737
89.5138902081579
89.6785811577358
89.8734389979212
90.0340281513634
90.1761817071179
90.3572637084528
90.5687788804133
90.7855740035621
90.9360790161592
91.0241612712091
91.176751076426
91.3487424235173
91.479924032892
91.6428666176167
91.7720413476891
91.8559681125397
91.9695330686051
92.069972987969
92.1538092797392
92.308946749477
92.4132208130792
92.4045236393845
92.4668320759605
92.5841222880273
92.6462999376069
92.684179810703
92.7634776437147
92.7937873865085
92.7913243047685
92.7879170200588
92.7575548960376
92.6698051945333
92.52687150366
92.2982253629815
92.1121209360393
91.9746179557735
91.7844509164441
91.5473058910567
91.3603478662556
91.2424232582131
91.1876991846421
91.1971686421632
91.2043552435676
91.0795201371494
90.7791136167878
90.3498658402949
89.8643135094487
89.4193002465183
89.000956244848
88.6444517378071
88.5864262667562
88.9129864400847
89.4403039074226
89.8231681113776
90.0499918787548
90.2873271360105
90.5675929268801
90.8306467433393
91.1112804403132
91.3858625644331
91.5591455941063
91.7141068049116
91.9526787468288
92.2357950483679
92.4894962241192
92.6275676627364
92.6419376617353
92.5664983358578
92.6227549993131
93.1091665300159
93.7857067907021
94.326182953428
94.6795938042382
94.8559744021115
94.9551425945184
95.0431557107274
95.188444242587
95.3105828152044
95.3890864880403
95.4939041333538
95.5972095689008
95.6277727053515
95.6813052331662
95.7793761915228
95.9039963265949
96.0044985105171
96.062505570304
96.0886209328114
96.1278682265659
96.2484509551288
96.307343704442
96.319632195172
96.3872555886696
96.4156792928297
96.3873979626154
96.3987047958278
96.4722039491386
96.5011866529828
96.5005161237009
96.4980639206883
96.5171447093369
96.5284682460433
96.5906260946783
96.6458133221348
96.6921501050411
96.7160047372929
96.7453975841888
96.7615691817264
96.8081161573809
96.8720422899653
96.8932947852933
96.9457839893735
96.9834612667804
96.979268877793
97.0334649236609
97.0979426163417
97.1346218039351
97.1367324136653
97.1573238828376
97.2083290797627
97.2726157047145
97.2827079083662
97.2830058310692
97.3506800150727
97.441658108059
97.4560106339619
97.5045425007269
97.5911053589605
97.6780918728716
97.6923166480704
97.7009317207844
97.78755851777
97.8607060985439
97.8910023321824
97.9199918448659
97.967034424784
98.0754457870578
98.1063113169787
98.0929110423455
98.166363900192
98.2645109395114
98.3139536012044
98.2997229373331
98.2164003199993
98.2160376002016
98.19834869895
98.098887461312
98.0726194890901
98.0838944674953
98.0512695688621
98.1227622976568
98.1496241384074
98.1689220499219
98.213053341054
98.2578882869389
98.314743120862
98.3569238764631
98.3526491407727
98.4126559488876
98.4590873550921
98.4504468707776
98.4690899731489
98.5196631877673
98.4720063233203
98.4485745105438
98.4544247116777
98.4859786594657
98.4871843221103
98.5079836232174
98.54158573838
98.5600438866059
98.5279186894545
98.5368060429884
98.5308412042964
98.532122297619
98.5460356147702
98.5331015366606
98.518761774544
98.5436048816602
98.5509573604223
98.5631932138213
98.5818737001657
98.5658625284241
98.5036590548466
98.4799934395875
98.5438484093419
98.6285668917307
98.549826475672
98.4697930756858
98.4607236022814
98.4862884123152
98.4827954276562
98.4331713175895
98.4161857913384
98.4810611773745
98.5287167051386
98.5675321973402
98.6097649425052
98.6011934383245
98.5429537229466
98.4868598502442
98.3895269381555
98.3731911175945
98.4320333887583
98.5178634444949
98.5223284779735
98.4291040599834
98.3832415251722
98.407402313554
98.3977597878421
98.4497847581465
98.4823154004412
98.4124407699943
98.4151174810145
98.5345076661743
98.5878469989787
98.5762283824283
98.5569683446482
98.6117502889095
98.6923719707246
98.7415264979239
98.7926452479704
98.9104174913406
99.0003711083415
99.035994104197
99.2129387908721
99.3506181767103
99.1921838621943
99.1936878834798
99.2041769596585
99.1220941706707
99.2747852179745
99.5055797267787
99.4580359320075
99.366613251846
99.5355597634973
99.6455794118986
99.5269375103627
99.4524232785916
99.4821598738028
99.5729887724438
99.6368498265126
99.6940832984912
99.6980144184016
99.7348351934944
99.8357916739541
100.098243091702
100.425524762675
100.496094743401
100.181305994958
100.015657352748
100.42509368508
100.98172955994
101.080072139984
100.444158130489
99.6943989563441
99.4840059867809
99.3749412552886
99.3036966158171
99.2013673959138
98.8503774887063
98.6088968609694
98.5849272390276
98.566641723126
98.5176046438498
98.4960411687403
98.4913052818226
98.5405475036507
98.6301805548753
98.6152483256857
98.6161999649855
98.6683958563401
98.6335280723389
98.6363457402385
98.7094938142953
98.8146685065747
98.8514256566808
98.8710831048527
98.9173273785566
99.0071916134699
99.2551376055338
99.4051710692042
99.3239727102734
99.5873323088485
100.009468838616
100.048001127651
100.018537713717
100.438494665338
100.447964862256
99.9306668713577
99.6909663265531
100.046925897924
100.21162746347
100.283120594606
100.274690776446
99.8170277094007
99.5663473818173
99.7986811485317
99.8012056245471
99.6694948476789
99.5491851945908
99.8581958396135
100.291494266556
100.169718929089
99.7388361200922
99.8129984083461
99.5668718089313
99.2067823688077
99.2725865540891
99.4312629281227
99.2980263158447
99.0621390400677
98.7700100285635
98.7880279719451
98.82853657733
98.8899032364878
98.9240978469193
98.9504491662975
98.8850884205956
98.8638696125411
98.8129652583953
98.7707405051185
98.7481430940731
98.772552334202
98.7173850206048
98.7414941702794
98.7558585370135
98.7370089587423
98.6492368090598
98.6156632569787
98.6112270126221
98.662990241555
98.6028692600245
98.543471435346
98.5231970580491
98.5421080018332
98.4625069894328
98.5494818063288
98.5444484746279
98.4271012628094
98.3437636122115
98.3222780732441
98.3059900489162
98.2996609836387
98.1512651522787
98.0855508501638
98.0448460663774
98.0332018968624
97.9663978150962
97.9097690978849
97.7592339191737
97.6671836901762
97.4973292207463
97.301496404319
97.0550231556716
96.785078149306
96.3874125321464
95.9942768646825
95.2001869775306
94.1080388699877
92.6692310759455
90.8500427443762
89.1951148955962
88.2090940863185
87.7337334407043
87.4252948188735
87.0911575482725
86.9558159831483
87.5455926575905
88.5599766022274
89.3433139384861
90.116860686028
90.9388945154267
92.0451125657657
92.3848732346301
92.5674417074305
92.6157976549971
92.4160138373817
91.3922677990071
90.0679764568222
88.5831088610028
85.9119130825591
81.6829078905944
78.27900195064
74.4515406968458
70.2096638156981
66.1542545218446
62.0232043693326
58.0481659443853
54.8013477443365
51.8788769892418
49.7076909125772
47.2937316784673
44.9735176492454
44.1657751564775
44.7106375976351
44.8835407392007
47.0812713447005
50.3346695075943
53.5055556423384
57.2657087737875
59.3600112073057
61.5582434152754
63.7063826276169
65.2399925662427
66.1293032341196
67.0905387642701
68.2134046834983
69.5475215847547
70.2899081161023
71.4904595981162
72.9849000440543
74.273775589441
75.4256366479239
75.4306566472711
77.7845330457312
80.338060965469
80.9676295637082
81.550368246175
81.9075514207892
83.9600075772428
85.2574246248456
86.2098920753868
87.0423905520939
87.6899481114656
88.4287972924319
88.8565695416924
88.6093462314185
88.3661027971115
89.5964368474061
90.1849664113939
90.2135745373685
90.4821920531121
90.4715007627383
90.5088962487519
90.211197629281
89.6963152774007
89.0567196455648
88.4750611202911
87.8565450272159
87.1143869537334
86.2826436735998
85.5530064955415
85.2490849597762
85.0364567280468
85.0185265403101
84.6101163520716
83.7300399638389
82.6717137206819
81.6017609704843
80.5966948727368
79.7511489620373
78.9879018297622
78.3354681640121
77.4185578111158
76.5232426742689
75.937712605007
75.5183556240886
75.1219533634712
74.671430554982
73.6266736073928
72.1561585129848
70.6556248924296
69.4258541180733
68.8757140913356
68.8756655822292
68.851418180039
69.3414221755105
70.8927044428708
72.0885501092304
72.790647619922
73.4560495731426
74.1588712148293
74.9421161506265
76.0289574813668
76.7296688872235
76.7392739541161
76.3474798598006
75.7358841742449
75.4771948797484
76.0914571320515
77.1704890652226
78.0193295423875
78.4009029810388
77.6525975352944
74.4633506111826
68.258037619634
60.2168273242462
51.6262170784672
43.4427099301687
37.0179473222288
35.4264004534308
40.6345122136123
49.1401820369107
55.4342133406751
58.5180638476831
59.4565617089675
59.2691397205741
58.6117167969358
57.9142200934037
57.4552224429631
57.4741775609409
58.076935256357
59.2355788415968
60.7234648355777
62.5113911137706
64.5127655911171
66.3296014545683
68.0404516511797
70.038351489484
72.3412328456954
74.7757550982499
76.9191220312685
78.3443920074083
78.9621035274283
78.966711099954
78.5060872820332
77.5822649213268
76.2123737084872
74.5065886631776
72.7042132233827
71.2691399574781
70.7282643301174
71.2206985260123
72.3088979076973
73.417281458537
74.1251829191765
74.1360420292811
73.3472283577134
71.9533950960043
70.3107196384573
68.7064696012756
67.3249584781489
66.3166674136498
65.7399973392024
65.5009622622309
65.3433573817479
65.0166647009134
64.350115373342
63.2276626954477
61.6163420889281
59.6459573504098
57.512706617985
55.4041687305443
53.4499084559175
51.7005408510002
50.1347216747136
48.7465219516442
47.5022006175021
46.4675195901228
45.7755288329679
45.6000752715681
45.8878476830739
46.3914837223949
46.8217114415978
47.1578244383987
47.5782174720401
48.1451431941349
48.7949596523484
49.6166366757765
50.6251533546546
51.5126263891474
51.8435882116533
51.6209340656546
51.19097189212
50.9260660247501
51.0114456351544
51.5943111936646
52.7537244098246
54.5362285404384
56.8062898189622
59.3242931724502
61.9504589501557
64.7620669573754
67.7519680949479
70.6274173217876
72.9203911868975
74.3319396382564
74.9537757151285
75.1383164419472
75.3738982158147
75.9684907731155
76.7276859779796
77.2201994833775
77.1995191922601
76.7388158955784
76.1647747113909
75.8854847658026
75.97504388487
76.0751147071412
75.7719660676962
75.0461212398171
74.2106218330998
73.4350578311649
72.6091261555477
71.4602996670901
69.8045272787355
67.7182668584333
65.3411258684273
62.8351243451875
60.2309775987633
57.4928351309183
54.6328335977676
51.7199802490446
48.8717787028488
46.1876909395969
43.8338716627311
41.98647409667
40.6391187758923
40.0520619188407
40.389351323655
41.680679400009
43.9582948552006
46.961188852797
50.389938460184
54.0361531869012
57.6253847805638
60.8869473734834
63.5522117040469
65.584958551
67.111327415166
68.242682281753
69.2077739318713
70.2826544402143
71.8037720089642
73.4781660826225
72.9447468829622
70.2738196890401
67.6876294880807
65.5743145382638
63.4561923489044
61.5297571880885
60.5117135486135
60.6510362055802
61.9295866169407
63.5060754336921
64.0610625472264
63.5684834680777
62.9538166932418
62.4991537719829
62.1646344590127
61.8258077755642
61.2809673024279
60.551991695549
59.6126154833007
58.6092372612163
57.7657104826834
57.2384476835546
57.0388729680573
56.8622078932177
56.370817079023
55.8674433085412
55.6549460471089
55.5166826630928
55.4791431009332
55.5042219962061
55.7309096685205
55.702323390726
55.6433414572075
55.7773261790939
