900
3999.43349933624
648.556783676147
1
128
8
96.5694641833463
96.5579951147597
96.5288547790997
96.5469406438978
96.5560922755535
96.550837232199
96.5126128502561
96.5018173098845
96.5743216989774
96.6335882684628
96.5940580192128
96.5605867704788
96.5484196591334
96.6114248968535
96.6947369639134
96.6952563896977
96.6343900719967
96.6405168952437
96.6553986183761
96.7121885778605
96.7932993396958
96.8026823263461
96.7375055142457
96.7133005679378
96.8370438721629
96.971870575181
96.8980397202955
96.8238137921676
96.8325336328586
96.878545981599
96.9478265499862
96.9191479274799
96.9263219523444
97.0757064223587
97.0899647348033
97.0146405634313
96.9805611564058
97.0110272032256
97.2362102613269
97.2870651364109
96.9753345959449
96.9999592021571
97.1339588232396
97.123176758561
97.0522865315078
97.0538599363158
97.1001689632533
97.1575556033648
97.0909366835814
97.0163836710171
97.0209876517657
97.1184413827005
97.2320651286355
97.124175579955
96.9592466410246
96.990375663448
97.0344367208742
97.0444709725235
97.0448396004352
97.0093434366372
97.0203438733158
97.1393331709861
97.1677338880689
97.1006702033442
97.1756940742378
97.3503673085565
97.5426515644009
97.7187631400267
97.6201969460563
97.4708193078064
97.5216927410016
97.3815276143285
97.2080415823362
97.2635077837362
97.1899102651742
97.1194001649833
97.2142039048993
97.1611969185967
96.878927241826
96.7057729708618
96.4741183494133
96.2887425575081
96.2687465148207
96.181017317446
96.0245122197092
96.024635956781
96.1392984805524
96.0893582861358
95.636884910615
95.0839433865245
94.6622517517421
94.3777256597969
94.1206578390317
93.8468507307675
93.3668991483758
92.7548396818213
92.2441020893257
91.8275238868617
91.6210219812962
91.2888595055715
90.6301916973644
90.149754151675
89.739836475927
89.3684162977853
89.0101923743892
88.5194279282592
88.0224905904202
87.5950230490489
87.145669691916
86.784684396821
86.4948463935011
85.9677900887316
85.3905846962878
84.9664669692844
84.5965507897316
84.2502649889967
83.9358299479743
83.4816654566103
82.973850023033
82.5917870689045
82.3060663861413
81.9579564151543
81.5023504031694
81.0926984592724
80.6927326963002
80.2401064337772
79.8780239708343
79.5499248191476
79.1321007199172
78.7620268463063
78.4010956553148
77.9694052604808
77.6656415905895
77.4044383377398
76.9854430726221
76.5838697228897
76.3257855978285
76.0609033573514
75.671059430978
75.3403545097929
75.1249613021786
74.8038163823132
74.329506790573
73.9752029890402
73.7877608742271
73.4685819196645
73.1300321407407
72.9094938690634
72.7129979058335
72.5613110401047
72.4360505948029
72.1965260930071
71.8264079280842
71.4930859872147
71.3035742574461
71.2005902154691
71.1220744326373
70.9656112469084
70.7001774463662
70.5845053629069
70.5298808399174
70.3725983049139
70.2725347567184
70.1891978655687
70.0913159934041
70.1021324046363
70.0740764228684
70.0465501812491
70.0508037728482
70.0148767093032
69.9943232612115
70.0250087754802
70.112753594423
70.1929273473933
70.1865944028379
70.2371090713191
70.3191169490327
70.3721804825392
70.457336906208
70.6157993541664
70.6836161178351
70.658273036742
70.6894233345009
70.7724561722256
70.8215104741904
70.8839041342627
70.9826676126651
71.020800965855
71.0148203774728
71.1349590873701
71.271435325841
71.3072004378461
71.3485630776458
71.3899982742742
71.4394731226131
71.6088857048135
71.8053492205101
71.9346218853681
72.0236486533261
72.1384469387689
72.2806331830629
72.403406442584
72.5229730899064
72.7357589415779
72.9052352399081
73.0702577227875
73.2980340009297
73.4980228811335
73.6300021579854
73.8198002893122
74.1317793925123
74.3726153668174
74.5749796966589
74.8809998254227
75.1108396375508
75.33129296408
75.6108248818549
75.8349070812372
76.0650139335376
76.3930472037761
76.6887329764068
76.9657774497182
77.2752780167504
77.5515960459873
77.7956043417537
78.0940754068747
78.3596091473426
78.615274692721
78.9374351213342
79.225792013091
79.3997813029287
79.6767842788128
80.0053868782574
80.2707764471803
80.4813948756689
80.6522449755355
80.9311739676256
81.2793699249656
81.5531694066655
81.7552540636286
81.9374159174779
82.133487915977
82.3162001943017
82.5053938192672
82.7115984418394
82.8794327402128
83.1296535624243
83.3989779799033
83.5949565416402
83.7410939886029
83.9286985584948
84.1425555449132
84.3287269579929
84.5635385494006
84.7438893060638
84.8910747354925
85.059178918802
85.2415009482392
85.4172014226587
85.5968064147156
85.7920602717213
85.9535363232604
86.088467981921
86.152460994976
86.2629560682705
86.3804104628835
86.4857466026197
86.6420909020541
86.7407270399439
86.8087984289104
86.8969296318699
86.8852750281352
86.7426921095786
86.6143344113666
86.4975931190317
86.2751459841674
85.9524999320655
85.5709318426409
85.1653072023273
84.7969701753595
84.6125868367559
84.6742758615644
84.7991050012066
84.7480843033289
84.4235388224433
83.7811831244738
82.9740000856448
82.1051008714996
81.0385475671877
79.92658989915
79.4150155179523
80.1084672900619
81.6194263494033
82.9415858269106
83.8078987438041
84.4122562596765
84.9006018900817
85.3573392896144
85.7482811470434
86.0895302669113
86.3357893106541
86.4431058272666
86.5308018575628
86.7165541298746
86.9169344000715
86.9348658679886
86.5539799520184
85.5685283662268
84.6090245461222
85.012505104134
86.5619590843009
87.9779184548624
88.8999346282225
89.4175430776219
89.7005787704061
89.9211746867508
90.1288812444846
90.2815832539341
90.4453879836141
90.6448293876408
90.7436307892581
90.8193209375393
91.0087647030956
91.1202016465655
91.2236215956609
91.3951767221887
91.5242629865875
91.5628654694693
91.6167711444237
91.7557567328649
91.8720567512897
91.9286805379201
91.9768267180854
92.025646191201
92.0660475650556
92.1426229876732
92.2168642385298
92.2475857940201
92.3070216286641
92.3655480726552
92.3764755590571
92.41677920924
92.5156894045019
92.5622752472438
92.6073767972922
92.682045057285
92.7505146094237
92.8227718665433
92.8798806001333
92.9391593029803
93.0046636666106
93.0586257438464
93.0784041021114
93.1029572762694
93.221193209628
93.3207985823056
93.3530079194818
93.3763429066033
93.430072492226
93.4814901405051
93.5328720541041
93.5850408538827
93.6432434217352
93.6999480830941
93.7617253411744
93.8556655039127
93.9854499253001
94.034827461477
94.0623695531076
94.1518138835362
94.2527399978709
94.312104154989
94.362531034223
94.4181603149145
94.4746439340565
94.5153013753041
94.6049912495105
94.7380418941059
94.8199864590581
94.8027208855643
94.8340776671927
94.8503247563025
94.8682851687631
94.9204583363187
94.9781335943545
94.9444911636864
94.9738972738775
95.0129140353246
94.9660600216966
94.9294976122278
94.9673610571868
94.9651423570283
95.0404744005074
95.1713296412384
95.1955209140741
95.1926743953594
95.2448885655132
95.2825257985274
95.3345427055129
95.3377904103648
95.3583831709329
95.3872669984018
95.4014642892424
95.4057779754399
95.4196111273702
95.4044271249493
95.3943641472097
95.4243558216304
95.5216614337697
95.5702631467674
95.536592381412
95.5400157157719
95.5524671091208
95.5024477378413
95.4916995226024
95.5373740841041
95.5586630344515
95.5597272488418
95.5779499516483
95.6255011625381
95.670306235811
95.6720111688203
95.6585084611725
95.6512180000282
95.655288551102
95.6278446089055
95.6652148745898
95.6528499426946
95.5767068423266
95.585639337158
95.6346381365927
95.6277512033224
95.6373307156694
95.6519634681838
95.6471867185059
95.6713345656148
95.7427612879342
95.7970914166415
95.8507864338535
95.8298530638797
95.7254642025112
95.6128965650644
95.6199674039154
95.669517681752
95.6860204685374
95.6603886674279
95.6434438879491
95.6628677689939
95.6567754799507
95.6270633968459
95.6581620877449
95.7164951666592
95.769054159024
95.8176559368492
95.8475090205025
95.8683946946822
95.8528201291894
95.8676081505281
95.9864303289348
96.0812482148489
96.1332619593994
96.2100046954467
96.3019028918166
96.3571816726032
96.4713541560266
96.5515706025017
96.5946576803062
96.6426198843327
96.66876408079
96.7445780628506
96.8868311806893
96.9506090972695
96.9351470990966
96.9811678629538
97.0795257567518
97.1593180016461
97.2333864846575
97.1714584735035
97.2280929487683
97.3538291015529
97.3335433903296
97.3427851301357
97.4280413410901
97.4695647669877
97.5597508360497
97.804336442206
97.9465703779954
97.8981653529702
98.0798640164159
98.2635221322528
98.1438910266941
98.1420244568106
98.7237454451085
99.241978371093
98.8425403986084
97.9952955920386
97.4032276307268
97.1756814397983
97.095508118183
97.0038209659648
96.8479111561616
96.6576864185107
96.4899868199796
96.3223289389101
96.3050614814957
96.3832710296673
96.3676195610446
96.3818487203852
96.4135848193117
96.4656461732439
96.5377253763489
96.490825680554
96.4047273218878
96.5358668660588
96.6672049285784
96.6512382508447
96.6792879617133
96.8359489167181
96.9549978622858
96.9685843251558
96.9865725802306
97.1528628915488
97.4221029281396
97.7333916830714
97.7769968767517
97.7469835350334
97.8664948235945
98.2033121336721
98.6550696573845
98.5765603103241
98.0956238932915
98.2008073824227
98.4012468138163
98.2520007922757
97.9791125005827
97.9313467739383
97.920018429581
97.8907358214109
97.9323410434764
98.054548931513
98.0938115753518
98.179240614327
98.422593889749
98.6348218836719
98.3961901506952
98.3078215499918
98.1671527597781
98.0092041737761
97.6897747977801
97.519210860166
97.6588508457213
97.7332054734324
97.4785309368497
97.3583156085654
97.3144457609585
97.2970352367327
97.2871827648912
97.2421708179661
97.1240746378263
97.1434889292951
97.133235325715
97.2022059971254
97.1672962606784
97.0972964146719
97.0618419064751
97.0507943576294
97.0226984104183
97.0853118227016
97.0548303643371
97.0181115275359
97.0099867444646
97.068488091709
96.9847192641338
96.928761990522
96.9309165860647
96.9040690429761
96.8606602163059
96.9357167657
96.8973196314173
96.8221560797441
96.7595129326568
96.8395092137076
96.8383880449935
96.766535361939
96.7091180370709
96.7122800311856
96.6368205731235
96.5823549732799
96.5501361952205
96.5517365132435
96.4254703864584
96.3609959977873
96.2798317773732
96.179930308285
96.068893442814
95.9294376246765
95.7325221895468
95.6146080304393
95.2080472626313
94.7204444412498
94.1541344615845
93.4099906051121
92.6709932857215
92.2213882614752
91.911325322926
91.6769851617914
91.4177903861335
91.267424736357
91.2912379054563
91.4536961157043
91.4984079831951
91.5481787003313
91.5735028579257
91.660242329272
91.379728283488
91.0306685238927
90.6026051518189
89.9783329257453
88.5669415922522
87.1591984207081
85.7977880443815
83.725223337993
80.7078688748157
78.3105911923608
75.6026259356303
72.5956694189011
69.6420328337134
66.6776436667214
63.8180482572189
61.5883700256774
59.5913184717225
57.980776189156
56.2110777969116
54.5758147940396
54.1397324996663
54.5664716663063
54.4925894644374
55.6635970410164
57.4601277264928
59.2461701097212
61.4023180338699
62.4016390836311
63.2768389274393
63.9899013163909
64.4037669911939
64.7109073710292
65.161673501732
65.5766020421443
65.843152014687
65.6252189751776
65.7827117762953
66.4217238680179
67.2975274603253
68.1298630639731
68.0515367906125
69.9045844060807
71.6318937782876
71.8829826233314
71.9786860336018
71.851750138484
73.361599589475
74.5769439190018
75.9350540185547
77.1546651753727
78.0816959757929
79.1910811988545
79.9242727779949
79.9680782375105
79.9560971657076
81.5986895968245
82.1391377263979
82.1641083008104
82.5949689355379
82.7096918678272
82.935510517205
82.6269347139762
81.9184947670171
81.0725082593034
80.2165073004603
79.3353196264698
78.7411142536798
78.3690300911504
78.2570312010373
78.3486675780358
78.0977589419238
78.0367161585451
77.6529630339439
76.9082531686359
76.047020812589
75.0585995516892
74.0021412572055
72.9520186706454
71.9155975407772
71.0372490808311
70.0373665459195
69.1631291318153
68.6286099134551
68.3684255013476
68.365918519299
68.758100739987
68.7825671251992
68.7380423526528
68.607060548308
68.2822808167221
68.2509651810602
68.4425425162611
68.4105771866699
68.6693781866615
69.5513079981514
70.1593227071103
70.4969794636458
70.9159066977032
71.4247381286006
72.0831973231916
73.070179867323
73.8020483333623
74.1635966947639
74.5138159583966
74.8022184400447
75.1565830441877
75.6792443648624
76.3024926851219
76.9590975952923
77.5291324211785
77.572413581549
76.160514916743
72.6595287154066
67.5830383709388
61.8003864369469
56.2681559187812
52.4555625293612
52.5153643528296
56.6636849781644
61.7969986985786
65.0201433774602
66.3392122242392
66.5279471498658
66.1396066766691
65.502448867989
64.8832451509797
64.4803841051684
64.4081627140575
64.6898564322288
65.2928664788364
65.9350940699123
66.5209807013616
67.6794145423854
69.5585512885792
71.3631778257638
73.0011400438969
74.6518698918663
76.2971727946797
77.7386564492582
78.7956315053004
79.4347138629723
79.7201438697961
79.6794467383417
79.2946869389186
78.5776300419158
77.5325053490303
76.2088216028821
74.8303328870206
73.7771267236335
73.3224183021523
73.3974599787962
73.7284333121833
74.003710849246
73.985269596339
73.5377804355171
72.6353619273822
71.3444946610217
69.8190528225464
68.1760786739955
66.4512359163401
64.7575662731724
63.2749337942673
62.009495330968
60.8806305360983
59.8362827523999
58.804654012858
57.5806227189
56.0606404392452
54.2825493897433
52.4641631097408
50.8948736959462
49.6884878772536
48.6152343064648
47.4526790712867
46.1357812051673
44.7591017518242
43.4547174411434
42.367295272849
41.5332336533554
40.8570017989781
40.1670456448027
39.4649179914081
38.9093957505083
38.7734574172144
39.2101793072747
40.3918541517781
42.2382796164506
44.2959855119729
45.9762073756428
47.1869238026152
48.2999477082344
49.6416376710889
51.2588583282911
53.1938319977754
55.4349435094979
57.9225691589796
60.4648665181383
62.8641590280967
65.0301172648924
67.0126428238096
68.8904194330953
70.6935899734644
72.3040677372921
73.5750562988738
74.3947543136402
74.7813077181588
75.0553090684501
75.5353435046698
76.1467868712808
76.6583027531991
76.8334352785019
76.7064589128867
76.5105105811349
76.4633929379051
76.6667925180959
76.9779519043902
77.1122128296705
76.9205049712761
76.5676032976336
76.1688545440003
75.6586695085627
74.9381203850689
73.7606611644352
72.0192843892815
69.9775888113455
68.0763116998252
66.4286144711269
64.8531139116319
63.1357044123765
61.2590148332148
59.3539786255674
57.5756635631156
56.076068452292
55.0463908602464
54.5439500801489
54.3882127607942
54.6658631311533
55.7932151768301
57.5386243570389
59.3455861398017
61.0706634723529
62.7960836891401
64.4445585676619
65.887442419478
66.9673456018717
67.5631931857122
67.8540796388687
67.9668109080362
67.6890468377944
66.6478873454032
64.5745378064573
62.2107349424768
61.6721318175593
63.0738063592649
64.4377701006819
64.7471290881959
64.1482223894898
63.280263712565
62.8427983217595
63.0031613288172
63.548567898861
64.281405577277
64.7115327488258
64.4115159200568
63.7436688098137
63.0752381066267
62.589072144727
62.4250560447029
62.2306357185462
61.6295232830078
60.701795935004
59.8634626533048
59.3548238172988
58.9096402431467
58.4844607920386
58.3180541186981
58.1381293453296
57.7560709858802
57.2974222131834
57.2117004156084
57.7086920628721
57.373553496565
56.8955731686469
57.0053345969142
56.8681988339423
56.5386859411309
