900
3999.43349933624
648.556783676147
1
128
8
100.388998316897
100.353793600498
100.42632972871
100.449506040803
100.426841530762
100.446310158708
100.424877036019
100.416622975654
100.460877782858
100.491158037296
100.436014205572
100.373880450877
100.352802076806
100.452657165611
100.531823170593
100.519535096285
100.435398831544
100.418774098841
100.499273814226
100.510145833199
100.509519255183
100.578161791007
100.547721048417
100.446814848998
100.480815455325
100.686529406744
100.763759701457
100.618818439695
100.525456139364
100.575350250646
100.652444413615
100.67886337253
100.62667937112
100.605246550665
100.626266077058
100.653690061681
100.682021573176
100.659598361999
100.764257089218
100.833726298824
100.592737859919
100.572478597654
100.745689830049
100.808952713154
100.683426611727
100.618998961109
100.642900764604
100.764577644106
100.749444927424
100.479967413012
100.368452601575
100.506368590426
100.752288769637
100.811861849164
100.576253348404
100.378329428711
100.361605777915
100.438529748596
100.463608073468
100.39328707123
100.357946675884
100.44105652805
100.479677123444
100.461924115014
100.505271815971
100.598833145098
100.778918827365
100.932150308245
100.768777680415
100.508361392862
100.539439816424
100.434322946925
100.120991874281
100.12121238987
100.027512090202
99.706676324755
99.6185789350211
99.5188938483233
98.9488486514489
98.2469098151839
97.3436175823512
96.5132483384782
96.2492103927845
96.306290923659
96.1985561990697
96.3573724859618
96.6069282762808
96.3843127300275
95.836008204556
95.1685040140462
94.5999822582028
94.1202188782577
93.6046133142622
93.1865337111468
92.7124943514891
92.0690587229145
91.5437827181187
91.0840184254814
90.7289265205633
90.3724979074988
89.716140072062
88.9874231254147
88.5281985013438
88.4701791711977
88.3848933658152
88.1131713137964
87.6310419915396
87.139912658667
86.8175116350364
86.5007956181612
86.22026377269
85.926935033561
85.5142789269486
85.1244149286511
84.6811409401241
84.2021539772633
84.0178006096007
83.8251328127624
83.2632636594733
82.6534343474402
82.249436540554
82.0720126339171
81.8005427230203
81.3471040668124
80.8580305278203
80.3261977730443
79.8998373782605
79.5398942498103
79.1617757722205
78.7828570248845
78.2707839022571
77.8900541560701
77.7147390589667
77.399658766132
76.9801721030546
76.6108474636269
76.2582320471232
75.8515600165721
75.4675275890032
75.1650173651521
74.8348083902874
74.5096517692918
74.1341738161008
73.6458798825017
73.2918513572211
73.0166338449844
72.6466122650898
72.3159053451447
72.094556860258
71.9776181602891
71.7788285060978
71.4164391756575
71.1033555245764
70.8876847408381
70.6726078653656
70.6518022911287
70.7128987053572
70.582346148676
70.4177709765407
70.3809706436704
70.3176134211548
70.2403725243198
70.2054837249278
70.117321375223
70.0610702852329
70.1752730529877
70.2618344069499
70.3512110911059
70.4825120923497
70.5101347888746
70.5818700707969
70.7949381921581
70.9483542188939
71.1167071780377
71.331468872226
71.4736811491645
71.5998187280106
71.7929504746663
71.9882146016322
72.1537678462563
72.3439080692031
72.5808552218741
72.7297224987911
72.8732042324604
73.0274825531347
73.201950844725
73.4396652050405
73.578030332497
73.6534464214018
73.847433855353
74.1039284541911
74.2885423041957
74.3002895323211
74.2852580456931
74.4533943079348
74.7324315358476
74.9765390113657
75.1431189642542
75.2719014782172
75.4436094701848
75.5960644739556
75.7049570883092
75.894070972575
76.1895044802393
76.3377672020965
76.5090071884456
76.8305945011041
77.0808015517245
77.2663506631879
77.5561663261569
77.8875299653569
78.1648887742101
78.4296687554905
78.7304958768929
79.0080667893485
79.3398192537855
79.7060701442262
80.0312993091279
80.3150786877649
80.6440190970261
80.9869999618335
81.305666857331
81.6669790022158
81.9865559899278
82.2773499016435
82.5654111744514
82.8740573073108
83.2473084720516
83.6470263799746
83.963343734161
84.2007176070211
84.5091357374407
84.852791266251
85.1358570487606
85.3861466143045
85.6427596314781
85.9393929216583
86.2916557203127
86.6093522534017
86.887462832778
87.1558768553696
87.414629842142
87.6426362812672
87.8912463850584
88.1190693446008
88.3173827308905
88.6118327757925
88.9093605375628
89.1380641819358
89.3396375521098
89.556128269862
89.7792974023995
89.9492999012297
90.1101904951447
90.3083762498731
90.546474149949
90.7680772424426
90.946110739119
91.0834192027839
91.2349343268501
91.3829546793458
91.5002764073996
91.5515169568233
91.6097338085135
91.683347440589
91.7863704551669
91.9077570468101
92.0448169378203
92.1385158489197
92.2267177237187
92.3327358680422
92.3282126919389
92.2247746266661
92.1090241809756
92.0054098034487
91.8515627101808
91.5896303490803
91.2239338978968
90.888949085152
90.6859514538072
90.590481555283
90.6063107003176
90.6184672985633
90.4270294789967
89.9229590543898
89.1934138623464
88.3980234009544
87.5922629297597
86.8420350711928
86.1860987394435
85.8650895011329
86.4089530081011
87.5936276498072
88.6503175103681
89.2941024319349
89.6934444123079
90.1360707903596
90.607918472021
91.0167359737125
91.3798294541576
91.6112962805889
91.7484631181362
91.9261937949003
92.1565559240459
92.3085690328941
92.2896929249324
92.0064882342612
91.4233774290822
90.9749810999673
91.5377705071055
92.8070486592466
93.8685867012714
94.5650090409929
94.9518217621076
95.1653812895743
95.3027058327535
95.4541164647704
95.5932811103507
95.7056627970231
95.8458699405446
95.989266134621
96.0628400049174
96.1430870677854
96.2435427869954
96.3482116413513
96.4489522821628
96.5530580249136
96.6425053997986
96.6971655012437
96.7447406925291
96.8144054589785
96.8662541713438
96.8979028953021
96.9285960605227
96.983713912688
97.0081463360063
97.0696683817792
97.1305482389129
97.121059504341
97.1310673836427
97.1667573973974
97.1675884176903
97.2324223258899
97.3107566658764
97.3384835724195
97.3552570045835
97.4238197855884
97.4739843941245
97.5126826799571
97.5629813594071
97.5807326633222
97.6214018733587
97.6666337332815
97.6977984183061
97.7659047019787
97.8220943933156
97.8640340573431
97.8796023796149
97.9048472709145
97.919195125032
97.8971276728251
97.9272714085669
98.0110929363016
98.0452162821296
98.0914836070592
98.1408080192241
98.1948243073714
98.2635719684076
98.3554499141644
98.4435612173041
98.4871887876252
98.5170783850247
98.5531234234767
98.6009516135956
98.639287188066
98.6694342773423
98.7266921504151
98.7933166865759
98.8419515520778
98.8734723860374
98.9031939067571
98.9297770867938
98.9710519007383
98.9658385643879
98.959814876186
98.9359217486679
98.8519646905868
98.8061928114771
98.8554207806808
98.8613456589233
98.8750857651227
98.9082117430122
98.9925736949825
99.0436928437899
99.0658540515542
99.0986133091478
99.1470886191524
99.1354041542068
99.114882449985
99.1652391944244
99.2191741603867
99.1558961706105
99.1292697878766
99.1874902295807
99.2401242183012
99.2110983560214
99.2135805161484
99.2223706045372
99.2638384780946
99.2674429612664
99.2847358789221
99.301104160516
99.3211602845147
99.3017231055529
99.2286033044195
99.2328990605569
99.2419036305423
99.2425487087208
99.3555039524353
99.3715657857511
99.3287295413233
99.3690125914581
99.4072240046192
99.4300515142747
99.3777580724052
99.3025730712781
99.3358470801987
99.3781991344548
99.3658937216454
99.2988629017333
99.2561542643655
99.2739685253469
99.2854260204038
99.237547512293
99.2028310515705
99.2436798161514
99.3182042214808
99.2717801798867
99.2237053108655
99.155954462868
99.066317148466
98.9839268847144
98.99840428293
99.0088648329736
99.0291500444679
99.0438814373998
99.0086676170546
98.9724470188596
98.952957419852
98.8636240189539
98.8627273556169
98.9785454806597
99.0472851881372
99.0256389696322
99.0255685959743
99.0752699212461
99.0974377294613
99.0788655981
99.1311804967414
99.1814409717036
99.2185597118576
99.234804265801
99.3257029132157
99.4435103715399
99.4527377936341
99.4841036013618
99.5578904597789
99.571628106915
99.5606918158335
99.5955127395106
99.6647526052137
99.6546276697892
99.6323202470142
99.6794812430782
99.6813710973576
99.7262904642692
99.9548238048965
100.122892687767
99.9785572967838
99.7703209298076
99.7376590406004
99.8845089316525
100.176785940869
100.225516291391
100.108881962655
100.153098306661
100.224802414322
100.331420809506
100.343049817802
100.125666064875
100.254905434747
100.598818907627
100.592613827127
100.552112005173
100.750145885745
100.564066364055
99.9959204721066
99.6231042848912
99.6623978258472
99.6095291984935
99.4240508929221
99.3206802632945
99.1372960323223
98.9006081403864
98.8093392066544
98.8319359986334
98.8513784493507
98.8393315115778
98.7842053547869
98.8208375036901
98.9335130239522
98.8866009148412
98.8161602145685
98.8773257988545
98.9407488338489
98.9929593580863
99.0118066907812
99.0628132300956
99.2014731088674
99.2790616146618
99.2331994184577
99.1630852163572
99.2665730786455
99.6518600784143
99.9509186939943
99.9776173924805
100.045363864734
100.190245916592
100.243050160387
100.331453988286
100.302491112438
100.431022450904
100.240516686884
100.144234488933
100.269158755341
100.149665978313
99.9442313475531
99.8542271391082
99.7231102983007
99.7156367594776
99.8820875115279
100.267229388654
100.4835016158
100.341409626724
100.145036811725
100.112020704979
99.9641177905775
99.846703759131
99.667846404581
99.6152816195909
99.5206843316246
99.4361407068336
99.3055177808573
99.3535600565828
99.3849722829034
99.3905015691772
99.3794214051063
99.3727724649505
99.3074203280956
99.2763898777929
99.1700691691259
99.1427121972188
99.1472843275985
99.2005854899017
99.172704300828
99.1299879296602
99.0678232957554
99.076757409248
99.106481125
99.1083223640707
99.0492017607891
99.0794569805322
99.0167855817552
98.9379891910301
98.9363447663046
98.9705381949648
98.9147950242594
98.9511355446801
98.976893007891
98.8325018988579
98.7435445760082
98.8246395892709
98.8167017221243
98.7334007574343
98.634772282336
98.6309271503654
98.5649720390395
98.4685976811071
98.3642403184109
98.381278156568
98.3216664395143
98.2283104180158
98.1083687487364
97.9348609898317
97.7394035853226
97.5559391410117
97.2942097584088
97.081338493156
96.51472012435
95.7649344200802
94.8889495966477
93.7234473126856
92.5488036419375
91.7031467805461
91.081287184696
90.7678257903812
90.6260540761412
90.6220092396669
90.9510826301202
91.4756757842494
91.8004646265494
92.113462270935
92.4829653273087
92.9358544648341
92.9222300524305
92.8278913929417
92.5976306999144
92.1758279359578
91.1096272444235
89.8730472379348
88.5453035341581
86.1383828651373
82.506175482544
79.5879671119915
76.1885282606439
72.3361688045368
68.7262282624673
65.0188125890571
61.4501562981131
58.410855855747
55.5637187110068
53.5271565611057
51.3375640902137
49.252661392778
48.3394838180796
48.6806246005891
48.8457239402982
50.7192406553598
53.5704853734038
56.5810741023559
60.3496897394037
62.525976054797
64.5887982670184
66.4604651594921
67.9058567627872
68.9835357443541
70.1025467707966
71.1126064434674
72.1286070529235
72.6464304765656
73.457191194832
74.1387404144632
74.386164535577
74.3348720648878
73.3462156310356
73.6642409633584
75.3970729511577
76.6000134716928
77.8768395346223
79.05507697008
82.2803277736289
83.6991206290831
84.5259750099155
85.3511498893396
86.1323345197141
87.2121326529653
87.9871351342254
88.1099936630431
88.1257803931656
89.3275989513513
89.7477126348055
89.7710324195044
90.0715854319802
90.123378054854
90.2804083611067
90.1955746682185
89.9376579405575
89.4804001403415
88.5329332210536
87.5459332902454
86.8514852632615
86.1756750242821
85.5363296764783
85.1928130245172
84.7808405598893
84.4454720401694
83.9245269812572
83.2032817973747
82.4732458046843
81.6247280143151
80.6163571408367
79.5607414392219
78.6396321525434
78.1183476356612
77.4061022557491
76.7500659568895
76.461557734846
76.3883197266284
76.4349475444949
76.6280142846259
76.2280069431403
75.4992475316833
74.6138687313833
73.7434811470051
73.3678685391795
73.4852932998595
73.581672990991
74.0665533997312
75.2507331312
76.0332183263667
76.4064084214592
76.7364228903882
77.0915134637951
77.5497856947607
78.2933237735864
78.784139523244
78.830983971386
78.7828316041827
78.669073868869
78.6169329124269
78.8488186762931
79.3095375774182
79.7756161059985
80.0453922108749
79.3892794422246
76.5392781341433
70.9362299041819
63.6235293886948
55.8489992406343
48.6501718048762
43.3396855868274
42.7662368791161
48.3754405341189
56.4168617523673
62.0584066299622
64.9115984833278
66.0842857907386
66.3735350924794
66.289647946781
66.17763915853
66.2518704222682
66.6892587442723
67.5520689374145
68.8328554390233
70.6008168961341
72.9807531306565
74.9351231574173
75.398040110523
75.5639635609951
76.2436860918279
77.3129680824415
78.6036429775232
79.8245440384023
80.6691949849609
81.0113142043135
80.875658550865
80.3355529154662
79.4116745640492
78.1127345832431
76.5507374433579
74.904062114609
73.5290646121514
72.864008950912
73.0538848824662
73.8323236000621
74.7736506375459
75.4422979508
75.540689733436
74.9215286533147
73.7152901910178
72.1860165653695
70.5447470534435
68.898004112843
67.4124538740304
66.3507402185098
65.8284984558634
65.4902198060451
64.9186114665357
63.9874313019846
62.7557133332625
61.2500909871845
59.5373331064071
57.6903508901499
55.7727738382631
53.8602489207817
52.0316337006965
50.341879769506
48.8564062529325
47.475100327925
46.1880734807859
45.1127999540449
44.4076114444023
44.0186676576532
43.7737895775265
43.4338546363215
42.9661152617107
42.4195505984189
41.9637141023265
41.876151171269
42.4086675772412
43.4287180366709
44.3933044762321
44.5852646213828
44.0157797004315
43.2779133008672
42.8647766097281
42.9558566057104
43.7123998664044
45.1933701980145
47.3867261221138
50.0524999956675
52.9345481635799
55.831656012296
58.785497359472
61.9163087534419
65.0233388398828
67.6058232024167
69.3350614767769
70.1534546117237
70.3580690866458
70.5076928017377
70.9668634330699
71.5761848540554
71.9415697471841
71.7752018207669
71.2002883821138
70.6094220310209
70.2692315121566
70.1573398753906
70.0709376730017
69.7269226137582
69.0443914442245
68.2544830592077
67.5937437141305
66.9281828857271
65.9940119698195
64.5971142980626
62.7799043470778
60.6917860436706
58.5316556947062
56.365362017503
54.1666017623619
51.8772786437934
49.5734156000314
47.3726609167281
45.3228609133917
43.6137450712964
42.4648467368583
41.8596051647404
41.9148874393589
42.7333741302876
44.439615424915
46.9211365506601
49.797990744188
52.8261890142897
55.8161667808164
58.5196046374815
60.715281751083
62.2286608821445
63.2628010632953
64.1521029017993
65.1097462065857
66.4238427486603
68.7378423842227
73.2217815228174
79.5104433361628
80.9989546441619
76.2926583067024
70.3304282613915
65.3892624825451
61.7163429298023
59.1822167840395
57.8320397487693
57.6237163512522
58.3619838255227
59.385255156644
59.7363265127615
59.4690034452827
59.1142093452328
58.7293515972955
58.3213818336896
58.0221723182623
57.671644035163
56.9412016257274
55.9058438790322
54.7769152891277
53.7396220346194
53.0431107134315
52.6274538375348
52.151906835403
51.6544182096839
51.3829340332679
51.0579127284646
50.3479915008306
50.1499432392102
50.315534872327
49.9591867238794
49.4382608175052
49.6131772369593
50.1916680103306
