900
3999.43349933624
648.556783676147
1
128
8
99.6249299047455
99.6295895778768
99.6354616801845
99.6388845626213
99.6164109144944
99.624518957533
99.640104385689
99.6312866384507
99.6680484206255
99.678736669065
99.625576140758
99.6169348690444
99.653327821489
99.6942045963552
99.6691602725019
99.6686131065046
99.6522180854309
99.6719937002519
99.7503859445344
99.7852082040591
99.7280944211024
99.7342783063531
99.7204653724062
99.6713654655644
99.7416011575636
99.916382720308
99.8702974352171
99.7453766228077
99.8522931102807
99.9158715634012
99.8330415443024
99.8245873814879
99.8178803666913
99.8494461527658
99.9589458381643
99.9702934552202
99.8981196703008
99.9370359515838
100.148246697854
100.09219206715
99.7361008025365
99.8567442212405
100.043084632521
100.000112864752
99.8053457738469
99.7362355855807
99.7967588194292
99.9982873253815
100.034125629799
99.7870590817802
99.7564543631044
99.8705689356793
99.9221260896228
99.8752919220866
99.6853245138707
99.5596866830711
99.5813125597927
99.6571067194259
99.7068396925856
99.6597126839138
99.6172776828759
99.6769383110238
99.6575300194488
99.6530028103911
99.7264827055956
99.8508583110608
100.149204046955
100.297144311803
99.9266659164827
99.7839660684378
100.031669083896
99.8288551731939
99.4062383455269
99.4710698136479
99.5225626793021
99.4538343020016
99.4908544615119
99.4114326552466
99.1515739711833
98.9828209266874
98.7837696553462
98.6732741463507
98.7512786141826
98.5613989430961
98.1679591502322
98.2206346519976
98.3610393699524
98.1123490310776
97.548811153588
96.8994473555658
96.4613745973348
96.1860303045765
95.9024641357074
95.6077574063733
94.8025987655564
93.9888216886689
93.5538486544516
93.1309826916006
92.6877183411975
92.0341646759249
91.3206654225217
90.8956549738639
90.4043907481765
89.8107055051829
89.2371208087931
88.6589080433316
88.202706571008
87.6468571750305
87.0149323533607
86.6529682309622
86.1911492354061
85.5602898588809
85.1384589197808
84.6812342467971
84.2212683894085
83.7397614453363
83.1591866369408
82.7825489832567
82.3908191495592
81.8907716453684
81.4903288649069
81.0270345184634
80.4072309374492
79.9339234286011
79.5662421615143
79.1554719962439
78.7174943623066
78.1976795055879
77.7324641159435
77.4572197718075
77.0339916517657
76.5164972225869
76.1790539965384
75.865270768534
75.4250373504893
74.927570050348
74.5057011219786
74.1708044885194
73.8108702281185
73.4628045205449
73.1886993738157
72.9292303102556
72.571939830995
72.091765160657
71.6833092550051
71.4102939327675
71.1847334464709
70.9574131389615
70.637550956179
70.3935353414784
70.1570356466299
69.808470799719
69.5153922898624
69.2612375483601
68.9990934545414
68.7669551394961
68.6409871672658
68.5232891581975
68.3126548121319
68.1710388262204
68.0091409548075
67.7358671407911
67.5388494646004
67.4892626701965
67.4753253103826
67.428214650119
67.4037253865674
67.4375887775929
67.4006927233003
67.2940414295709
67.2336063818833
67.2431193112202
67.3324115523595
67.4423664337709
67.4285151983978
67.4373363118322
67.5105250403034
67.5990252189848
67.6659415609197
67.6902931033729
67.7554515576111
67.8585366461652
67.8677637373265
67.850143414974
67.8800481580377
67.9148939064373
67.9770276043641
68.0320606397215
68.0382575160343
68.1291429819667
68.1936828742764
68.2021919641443
68.1775100099096
68.1857883530417
68.2594348084597
68.4284492929727
68.5484880362386
68.642968633551
68.7315513793343
68.8442871029052
68.9935698599012
69.1702745440656
69.330152822547
69.4475862554399
69.5720233210617
69.8035787362887
70.029149900307
70.2151924466278
70.4001367616291
70.6272775216803
70.8618453010842
71.1169184478978
71.3346613187006
71.5527840520301
71.8115781002298
72.0832036959613
72.3625079736562
72.6994080348473
73.0245475854605
73.27884941731
73.5622669886184
73.9099684386933
74.2534983290298
74.5220958012764
74.7747584764215
75.0817273553306
75.4050070259314
75.7792417328195
76.1285225706436
76.3627260437951
76.6149394773225
76.9962960064356
77.3569538729014
77.6360232358757
77.8034539108141
77.9972210917917
78.317751010166
78.7092956635195
79.0364416887418
79.2994040872914
79.4788548302233
79.6889623840382
79.947649715398
80.1370017706672
80.3742313422398
80.6333794629995
80.8865072774865
81.167756464124
81.3971203061011
81.5967466280134
81.860023560709
82.1373307351729
82.3082794257537
82.4919649140748
82.7829697627199
83.020161851854
83.254609336875
83.5130901066889
83.7726009502477
84.0426929233304
84.2412670410888
84.3881334735524
84.5014460225435
84.5873928429937
84.7044681996106
84.8008997891764
84.9948770162413
85.2647171502034
85.491226741023
85.6182312598927
85.7330170584172
85.801002469788
85.6995576226375
85.5570575857261
85.3477396976653
84.9493881215728
84.459506865231
83.8261529630406
83.1740590778136
82.7585412406499
82.7421641168067
82.996225144189
83.151513555913
82.9611160757158
82.2733031641185
81.1910382591616
79.8467264478744
78.3652220749831
76.7788757932956
75.486660550713
75.5051415329204
77.3334192602574
79.8171418144364
81.6272957876513
82.7190874216284
83.4603766298973
84.1770574980545
84.8826925928888
85.457479351154
85.905852018485
86.1521109028615
86.1705157842657
86.1626226729223
86.2641820349412
86.295213345547
85.9138547650875
84.9047068287952
83.2863071860412
82.2912479863328
83.610930983835
86.1356931256166
87.9512457694897
89.0022880362004
89.6219322511464
90.0419277137082
90.383739113716
90.700499796956
90.9655309693475
91.1742163492316
91.4236655126365
91.6518963428997
91.7915926746597
91.9617238389643
92.1785825367389
92.3798414263414
92.5583988062792
92.7166518696055
92.778852805519
92.9132352158581
93.1224195189033
93.2068782950999
93.2487711274427
93.3553420617257
93.4279279239914
93.4639113720105
93.5557375272917
93.7162083397502
93.7888063076853
93.8339824398703
93.8714472929197
93.9008796353356
93.9953843975779
94.1403608400537
94.2416406865085
94.2974473367244
94.3524488127984
94.4691548175014
94.5573467828149
94.6078018289181
94.6778342190638
94.7894301344208
94.8344197212645
94.8636461736588
94.9075840661634
95.003037869347
95.1168562548548
95.2027877865888
95.2616735756575
95.3249023407669
95.3773942373432
95.4340561873369
95.5139532415632
95.5974032587005
95.6273810023263
95.6775499893185
95.7622911372164
95.8784918224356
95.9616426124526
96.0348319572578
96.1332655233496
96.2200423179569
96.2420252864498
96.2559056754782
96.3389328397985
96.4691836825752
96.5126303785317
96.5021189675356
96.529674878036
96.618488125356
96.7150275968798
96.7323896822988
96.7240711237069
96.7102027288114
96.7334795129489
96.791972490461
96.872305446408
96.9027667979604
96.8918722157811
96.9626761478116
96.9346393981091
96.8833954567799
96.9562481355008
97.081496467849
97.1140602878593
97.1230884116246
97.1825672486825
97.2240405052232
97.1692172666389
97.1427267678428
97.1664057751711
97.2699756462981
97.2830962101739
97.2320521348742
97.2828569073131
97.3166654137503
97.2661574687239
97.2632687267602
97.2951621735032
97.3083404446504
97.3115363776025
97.3466161053121
97.3614425289757
97.3461466576367
97.3405062792833
97.3515573052224
97.3255882920113
97.2927786339792
97.2977365085308
97.3346181878504
97.330167398259
97.3362045374632
97.327709068394
97.3493490768264
97.3721985037107
97.3604870756748
97.3191541710445
97.3359440681813
97.3312661887694
97.2889344570365
97.2730382964212
97.2642699693094
97.2392398769843
97.2532435638548
97.2813938751995
97.3221621636236
97.3727110982765
97.4343065872972
97.5265319856987
97.5997642723801
97.5367186471523
97.4449832583426
97.3798432206342
97.3433519709762
97.3273731665402
97.3276983117024
97.3136688248651
97.3159339875753
97.3180829646981
97.272309360375
97.2083292999123
97.2074792015538
97.2428972912024
97.2452140035945
97.2210906802473
97.2433659823786
97.2496573254085
97.2257791723606
97.2517991850884
97.298757382533
97.3362744724675
97.3938985418662
97.4280657070678
97.4702666927737
97.5489425814642
97.6141055259495
97.6238339109074
97.6922275702531
97.7993889189352
97.8667028073903
97.8241806491933
97.8230260077725
97.8521398405937
97.8811132817918
98.0177488114352
98.0929060592317
98.083619567482
98.1363176698554
98.1161808369139
98.0865466881746
98.1350433735838
98.2118575690621
98.2715740788659
98.2991483492016
98.4422029723466
98.5090818602201
98.3647832542427
98.3531701783352
98.4451128216628
98.6266880176959
98.7814335885858
98.820724881051
98.8103625589525
98.9530943872689
99.2057810852897
98.8809124093525
98.4706229464913
98.3330316453447
98.211065816128
98.0026617118721
97.6934693325811
97.5239135602445
97.355805128327
97.1722292990311
97.1880358026591
97.2603405313149
97.2634064449677
97.2519098350155
97.299931776449
97.2841039184228
97.2022302903212
97.2262261700666
97.3438149509224
97.383810979709
97.4223965993766
97.4873872348623
97.4882666650052
97.5125971062676
97.6371001449864
97.6857007982715
97.6463331623707
97.7579756355056
97.9511802068774
98.1490351964783
98.4643484256855
98.6802786222996
98.8982904116307
98.9626276934109
98.9080182017073
98.9465562338922
98.9199560414899
98.8992195784051
98.9775807996242
98.7510776569208
98.6687758238095
98.770856978857
98.658437432798
98.3132140868173
98.2949316503783
98.5892457946647
98.6442332424603
98.6519354527051
98.9792855421672
99.0330708116736
99.0836292114981
98.9518165134236
98.6120941513441
98.47071709196
98.6283804900849
98.5690026682031
98.3395521984156
98.3637182002064
98.5167450496988
98.3515253015148
98.2372530864444
98.158151698473
98.0843500852401
98.122940966934
98.1600346397389
98.0325960339781
97.9515309133468
97.9268004159558
97.9620276186862
97.9880192914252
98.0619074995109
98.0106611946113
97.9250734818207
97.8822158221251
97.8538309549497
97.8354677437226
97.9096597097555
97.8977393840314
97.8457654553609
97.7673850530758
97.7707175840439
97.7831909924358
97.7894663837929
97.7304630165651
97.6948733152868
97.6702069689499
97.677209586865
97.5938118586432
97.5693956353204
97.5286467386806
97.5253726907003
97.5139024242585
97.4621733130489
97.354413086062
97.3225433033364
97.2727042511657
97.2083583678068
97.1268884368294
97.0801732283101
96.9884353825919
96.8917993639123
96.7784794653581
96.6797093530414
96.5704494602079
96.4791339086799
96.2264860361071
96.0553646691635
95.8541914683077
95.5855915081155
95.3194788354178
95.0980197425295
94.8320345734381
94.6027707434591
94.3125644172264
94.0319668395221
93.6417362216479
93.3996733493557
93.1016444145911
92.7487413112489
92.2013676102566
91.5975549453231
91.0622564088579
90.4027076055579
89.5071049031033
88.2979238031319
86.6787955062596
85.3266886080634
83.9383119775875
81.7974423377826
79.4541262310809
77.6301282077742
75.2870600148044
72.7928363361387
70.5542702842964
68.1961746217077
65.9947268892905
63.8627363752035
61.7908272549003
60.5578083837383
59.105861786164
57.8017384031734
56.743736518138
56.4916335958761
56.0183114809638
55.9205270753703
56.266376704194
56.7426661232354
57.5565355668465
57.908705322658
58.0367259627549
57.9991586427293
57.7293827656737
57.3594648877446
57.1428437477792
56.9950938357152
56.6860745622241
55.9499672373365
55.3573548186847
55.717279926671
56.5704908179552
57.3622338382705
57.091088096374
58.4668547402934
60.3979802592876
60.8046808073091
60.9187916372706
60.5972545947877
62.2929982993096
64.4036160813878
66.5416285142839
68.2770057419784
69.5099876616539
71.140242656269
72.6924668955882
73.3614000419139
73.5762912940471
75.7328771016376
76.7717470762661
77.0220450333779
77.8059798920017
78.1227510292335
78.5480920230185
78.3107541923202
77.3757806331377
76.17877732232
75.0405168130304
74.2430949276846
73.6925297665524
73.3821455828839
73.0935522397832
73.2872542565743
72.9891491336564
72.6211075483111
72.1330157411495
71.2278825056857
70.2930970013276
69.4913519809583
68.3905818612
67.0710562731515
65.40871329863
63.9235692983066
62.5240718840249
61.1188160791327
60.0662359711213
59.4818392405182
59.2650943506635
59.685926547696
59.8925748898453
60.0695710089919
60.2846212023553
60.2590031800276
60.5029837350997
61.111980166011
61.301751370449
61.4354609533436
62.0389716769128
62.3969280722339
62.5085252141702
62.8497926103795
63.4307920020173
64.2199539981651
65.4911182578714
66.6168661178717
67.2701525456986
67.8556953706534
68.35284026494
69.020322681545
70.08037539297
71.3203562884822
72.512693186452
73.626447447499
74.4752614559809
74.6572833156015
73.7486393230478
71.7713989120256
69.1184528525078
66.3809097666262
64.3244021510976
63.8931112896909
65.1355874852185
66.7174121992309
67.4510543818601
67.3963577528487
66.85357325929
66.0932406684136
65.3070832779269
64.6109678401226
64.079357720156
63.8144026435365
63.8826728802343
64.3540953026914
65.2088609275891
66.4353307040517
67.7527214001388
68.9133676330064
70.0944930675766
71.4351276292813
72.8632641821632
74.3055854744953
75.6553968371696
76.7806941797649
77.6261515803789
78.2148624185052
78.5513734708401
78.5914980763899
78.3341600273608
77.8211260479615
77.0732543839637
76.1678134081842
75.2497673184369
74.4950718666523
73.9321809659862
73.3694952263571
72.5792383581702
71.6296300464041
70.7697342758422
69.8924521390077
68.7393668311032
67.3941009369537
66.0016027570473
64.5665797071357
63.1317149044696
61.8172566492133
60.4930049258926
59.0057913915126
57.6204566516023
56.6217739999696
55.6710340436575
54.490250937561
53.12084111492
51.7216671161995
50.4534262342678
49.4075753670611
48.463451630805
47.4740072180302
46.3936368107912
45.3035982507787
44.2496110315149
43.3053047291207
42.5180728470895
41.8940042491803
41.3265545064084
40.8020098809869
40.3297706184748
39.9714160774341
39.8572583898413
40.1546905121849
40.8872732893128
41.9418900997013
42.9834779753773
43.7900819443355
44.5177708605916
45.6343074059159
47.1981332633153
49.1026481671218
51.3679009539588
53.9344157541734
56.5808926176606
59.0681417251492
61.2821498800512
63.2740143325003
65.0589878030845
66.6539281252122
68.0944984280592
69.3497832953078
70.3696714261052
71.1410418586758
71.7905103374172
72.5156055627856
73.309408875325
73.9810381141552
74.3738856332295
74.612954482256
74.8519734154681
75.1528239010559
75.5717904655964
76.038395054709
76.3305150424413
76.3725720077972
76.2513146771591
76.0267255979312
75.7156793588512
75.2813361250158
74.5709302597837
73.5089303388231
72.2055680799727
70.85912687838
69.7301293898297
68.8015604670035
67.776056878657
66.7689397138234
65.8202564014531
64.8264907254408
63.938248210817
63.2733533015545
62.7053045073757
62.0477918457646
61.5514348359407
61.810090750714
62.6024203374266
63.3304180435302
63.8997606019664
64.3413271796003
64.7256116345261
65.0767284480744
65.1885277031261
65.0300817072389
64.6936891968814
64.3074495412593
64.2069220134282
64.6806719956382
65.7291274412687
66.7190996866773
66.6166910821157
65.4917532746723
64.0797999138229
62.8329429134068
61.7600396974786
60.8010124174617
60.1029155728622
59.6837732965096
59.5139983502351
59.534810889606
59.4409500053586
59.0917130971521
58.3946862321151
57.5424152447448
57.0745096697158
56.884357801281
56.4436102467942
55.8338361624597
55.3470833444645
54.9435665924523
54.4539321221579
54.083635285828
53.8789610919952
53.5280552295207
52.9785020278196
52.4944158287891
52.2681850274869
52.0219290919517
51.7336539868475
51.5516803266344
51.4318678729096
50.8744209903552
50.197522984112
49.983912453712
