900
3999.43349933624
648.556783676147
1
128
8
99.3236535676327
99.3432972990773
99.3630513220922
99.3408639408257
99.3479957172134
99.3885685974147
99.4078784194201
99.3915069268937
99.3230215396669
99.3148122262048
99.3706868837474
99.3674302359113
99.3860879993496
99.4791020846019
99.4688584560801
99.3732813724723
99.3511471162335
99.4263447288916
99.4715724275694
99.4677400349856
99.4586244384185
99.5282195458952
99.5371890443637
99.4506739962588
99.5040505944085
99.6842606491007
99.7119422125816
99.5962143798595
99.5363587352012
99.577389117911
99.6500063508506
99.5880948069662
99.5157932231414
99.5962031765879
99.7061281571643
99.8049132098553
99.7006827276139
99.6102345019821
99.8913107880146
100.006098456478
99.5801933254425
99.555729294622
99.8096787189989
99.8928491488619
99.733203150683
99.6574482675497
99.6710780568364
99.8024558946192
99.818472650963
99.5961529664721
99.495012700291
99.5900200998089
99.7355169584733
99.7630563255959
99.5764032856465
99.4355803261431
99.4675545515819
99.5008470395214
99.4884132130894
99.4933600428013
99.4974884528594
99.5467382777768
99.5734033754943
99.5406909605328
99.5771977282831
99.705976855759
100.024108387856
100.176983048991
99.9169648642712
99.7418745591751
99.8285038511891
99.7537883925746
99.461608401043
99.4152701218408
99.3680839490088
99.32657487429
99.443749254253
99.4707819172398
99.1973300608452
98.9805673236672
98.8349374895976
98.7401876130321
98.8315232083239
98.7971417941644
98.3790422963051
98.210952833653
98.270261247703
98.126534182219
97.5652021880272
96.8760358880908
96.3628889997493
96.0033587827932
95.6784948388913
95.4736106130016
95.0390377701896
94.2540109837261
93.6598647628069
93.2542637659299
92.9989495145352
92.6492007066999
92.105788167487
91.7288263574556
91.3690552896644
90.9240847133404
90.5939380108345
90.1725990456245
89.5706507402844
89.0134478137202
88.6380624368921
88.3952723784198
88.0152132600267
87.541349760461
87.0873406968826
86.5845241636853
86.1365011482145
85.747420910924
85.3503320808765
84.9616553986577
84.5852901568634
84.2118303435153
83.8452688817461
83.420583634965
82.9103480178503
82.4987089408961
82.1942905142816
81.8748253442439
81.4197068512024
81.0203580161503
80.8153488500632
80.4410852422595
79.9105985200778
79.540475563811
79.2836128806503
78.9254645660516
78.5712507013221
78.2084494832454
77.7972187684055
77.5095456369604
77.260323998846
76.8977738356074
76.5927528009976
76.3420047302656
75.9315230759613
75.5816392831739
75.3882334727689
75.1407557296466
74.8538076543547
74.5723331025468
74.2603099797452
74.1023593643351
74.0097799178704
73.696318066859
73.3352387378853
73.1368663790002
72.8913325895281
72.6791292465175
72.5911178771483
72.4325958241508
72.2261409633619
72.0945599955337
71.9948776045008
71.894332298671
71.793640656537
71.6597543685352
71.5556652152475
71.5625417147596
71.5948946966215
71.6066123466025
71.6199298182095
71.6151973026269
71.4933298021778
71.4223118374544
71.4972648766814
71.5969884606176
71.6406152635433
71.6856767010021
71.7050420058552
71.7479579668718
71.8229130957994
71.8700682505393
71.9161984617366
72.0024678477357
72.0557433162579
72.0530538254468
71.9873890588486
72.0058656287365
72.1289393056484
72.1701615175892
72.153680354797
72.2189754725891
72.3322975917756
72.4072517454069
72.3848804115988
72.3307319553745
72.3567415493661
72.5444411872178
72.7465911986684
72.8922329896162
72.9588288140787
72.9809978828553
73.1262567618107
73.3148188587462
73.4980250000244
73.6781050647919
73.7760970590603
73.9412447609649
74.151610209831
74.3430037681242
74.5434537599367
74.7432791182933
74.9280369230261
75.1735174843773
75.4246868612386
75.6819775194522
75.9673186020433
76.2151859253874
76.4519229141236
76.6882575839405
76.8971770154525
77.1633493153447
77.4963254811691
77.8137867327326
78.102911332048
78.4105242829317
78.7215040504114
78.9550667793757
79.1523617892319
79.490608757932
79.853182684626
80.1156063473125
80.3873460257258
80.6836768095167
80.9390174406984
81.2191789550118
81.4062175287168
81.5922740463766
81.9044015268351
82.2646321871024
82.5689548983352
82.7918515796743
82.9799002976814
83.2354254967421
83.4439363574507
83.6206443357337
83.8876255171865
84.1196467209673
84.3123434721202
84.6072427799099
84.8476424704662
84.9808231031173
85.1971538809794
85.4807239056798
85.7193323181136
85.9168560152501
86.1235633002499
86.3328108463496
86.5280199338172
86.7369868380927
86.918287333218
87.0824460822322
87.2745021748377
87.4213764469469
87.5355743458723
87.6272624566491
87.7575410048
87.9376711552731
88.0754039182053
88.1563046290028
88.273749187857
88.3817123235344
88.3864561629418
88.2955708940383
88.123735157392
87.914277688756
87.6784719881666
87.3616218469174
86.985986249095
86.5638315228292
86.1543984042435
85.819365304271
85.7480048889826
85.876384338466
85.8948960778439
85.6649477106454
85.1015465219505
84.2855310612139
83.3264639958382
82.3273747035524
81.4171091302053
80.8192405045926
80.9992740214631
82.0317115269289
83.2849083021868
84.2576427038119
84.8911786598805
85.3782434426647
85.8282082690871
86.233049444245
86.6516030628763
87.0061671536356
87.212776791126
87.313796181723
87.481241379441
87.7049502929073
87.8390758266769
87.7854193642352
87.4020154580635
86.6609073493303
86.3736402469695
87.3289107482847
88.8040871377266
89.9163716001927
90.5816874186123
91.0101616363589
91.3025736976749
91.5150305059244
91.7399454202968
91.9436471839841
92.1277783956773
92.3219256361692
92.4567523530499
92.5395985887742
92.7224965959011
92.8909344900859
93.0115772912638
93.1695981011374
93.2487095597611
93.2789789015825
93.4317925750697
93.5995046458522
93.6697537600729
93.713058066927
93.7600787789484
93.821916127065
93.8638382769801
93.8807195260388
93.9536831341554
93.9977803927399
94.0229770632694
94.068061031663
94.1124082553682
94.1589829360213
94.2641193677635
94.3691613833836
94.4090462174553
94.4436787648189
94.5352070373047
94.6005379733568
94.675812087679
94.7873592961416
94.8409405229042
94.8874437332764
94.949116934117
94.9856916526807
95.0612969530549
95.1596188137641
95.2222364839182
95.2854157313077
95.3414200226102
95.3845315133865
95.4380065538262
95.4971513412632
95.5538318411259
95.6213209284359
95.7039366810933
95.8034030827099
95.9182342124284
95.9634424333158
96.0186137526492
96.1487424378294
96.2318336792963
96.2798945087198
96.3390839061933
96.3734711737577
96.4038199241807
96.4868025734525
96.5954504340446
96.5984163622407
96.6703305990193
96.7961750505068
96.8322795752739
96.8028112619834
96.8380055341321
96.8443606005826
96.850532232859
96.8678975801218
96.8735878968818
96.8416339247749
96.8062439466275
96.838745429471
96.9300035406552
96.9386898983562
97.0013854940547
97.045189499776
97.1006232237517
97.1170384886385
97.0892424794049
97.1166933895217
97.2472368462372
97.3368615116598
97.2936693213599
97.2576893181455
97.2891655226039
97.3046435518167
97.315143252145
97.2942834309499
97.3063617212402
97.3998369525209
97.440719123435
97.3289762698275
97.3525338606792
97.4416556497171
97.4416486359527
97.4271995721926
97.4427296326785
97.4598668906939
97.4939283452875
97.4481359177223
97.4727030701704
97.5635156345804
97.5941735328687
97.5809605515629
97.6026124915051
97.6559598120319
97.6883216754939
97.6009129869282
97.5233862487808
97.527616459433
97.5517081742912
97.5499828282453
97.5724307756823
97.5576780608348
97.5220073010893
97.5251423316832
97.5212057797168
97.4517966746748
97.4257220780962
97.4164917340117
97.3835441806909
97.3222474214079
97.1927245722119
97.1176018887876
97.2216941183682
97.2972308148739
97.2861189886338
97.2565317787642
97.2574796130328
97.2707582287006
97.245744899225
97.1648508935901
97.164376201825
97.265029470124
97.3912603843833
97.4674885288528
97.5273785542855
97.5910683292437
97.6159074866718
97.6398869676016
97.6604772239332
97.6557149972283
97.7461639337598
97.8940016929634
97.9598263900635
97.9643088362571
98.064230928771
98.2080505750187
98.1993357008628
98.1221791146179
98.2512684462158
98.4040325096068
98.4584999961872
98.3632547599828
98.3562653446493
98.5716941443868
98.6487760567252
98.5607496702966
98.5585403895766
98.6668633238776
98.8159671818769
98.7218958625171
98.5836851351514
98.7462367406602
98.8915003416854
98.9283213572424
99.0873516950512
99.1252829264831
98.9652897402203
99.0703776354286
99.3833463221255
99.4642004326778
99.2832896662568
99.172849638788
99.411176284158
99.7544512273862
99.8757708489686
99.5550585379719
98.944331943562
98.5392097452593
98.4601463208282
98.2592790750843
98.0275908906725
97.8959669280697
97.7757472557364
97.7202934220374
97.7314031942875
97.7384781785473
97.7274739411997
97.7349111641854
97.7572888815182
97.8315245777139
97.8796463050662
97.8048287059826
97.6765874358474
97.6981250554608
97.8062667891885
97.8754425493164
97.9071796077063
98.055344506924
98.1856825518014
98.2306981914471
98.259236871958
98.3023497728414
98.4845976565706
98.8247831727651
99.0495178856545
99.0831285075018
99.2221748515595
99.5340468038084
99.4674634405757
99.1247195883111
99.0827494136576
99.4326253491865
99.3270011338905
99.0851850665242
99.1858673707628
99.1386363205971
98.9802294684525
98.9893316296737
98.8849576769982
98.9339215732763
99.0872247498703
99.2445274180842
99.273546342915
99.1862619113442
99.1323702187217
99.3843146215314
99.2073099858192
98.7708008929713
98.6678363108252
98.7008600815343
98.536157191241
98.5445432041253
98.4204255995761
98.2715928707618
98.2213413047133
98.2690775758579
98.3596486550076
98.3838607681016
98.232074690045
98.168324489718
98.1270687263714
98.1135932769187
98.1815466209641
98.1642252979741
98.0193772049111
98.0690119903954
98.0809035824163
98.0055088548156
97.9891711272439
97.9994124021656
97.9541084702505
97.9688993709726
97.9279826181528
97.9316742609683
97.8577056797206
97.8501343113348
97.8616680896501
97.9217592898396
97.8701570960958
97.7739120225433
97.734167111826
97.7579206599493
97.7127304391084
97.658914803724
97.5456005497742
97.5104412391745
97.4867957082125
97.4438040621357
97.3418355688155
97.2841290456723
97.2099021995194
97.1501997008352
97.0064837523998
96.8442804193876
96.6577710569825
96.4621988995128
96.2169795225463
95.988215499212
95.5077384202885
94.9110180740796
94.1188790016202
93.2047481767217
92.3532097351605
91.7629253500294
91.4423451696755
91.2348684047705
90.9237378283078
90.6779733033792
90.716758633346
90.9795558050965
91.0870792759042
91.2186242046248
91.321755810449
91.5461816784476
91.3583563961732
90.9990525215699
90.4688757604085
89.6878538270984
88.2988597163306
86.9126572570946
85.4003848141546
82.9181593079521
79.6761454178972
77.0136690779751
73.8281221505153
70.3489835288103
67.0561944381101
63.6725139686903
60.5085647843242
57.6175013194483
55.1012035565244
53.3431976176226
51.354953186898
49.4793690968863
48.4662602725319
48.7956552246491
48.7446076724017
49.9539864884907
52.0615650629972
54.2756752416556
57.0778631607656
58.4524126258665
59.5364653247961
60.4641145703472
61.1755843501446
61.7178533734138
62.2855461290224
62.7944587052814
63.3935467851734
63.5751847484411
64.0563385639716
64.7060639840068
64.9710503452436
65.1274169358431
64.4248133659169
65.9824140313402
68.1200379003617
68.4656810257741
68.7581502765774
69.0732469383118
72.0310411405931
73.6341705354298
74.6037275215694
75.5101897530677
76.2466090676356
77.5650893388181
78.7672878804107
79.0367741189777
78.9329042353067
80.9546642044213
81.8834275428755
81.9603073359248
82.5644032351272
82.7706179547393
83.23805886822
83.2332531962096
82.8078109587725
82.1731557758665
81.3259267397447
80.3556042701964
79.4928630623258
78.7747674885273
78.1401422964377
78.0731409467301
77.7564679828857
77.6201581974483
77.2822436223987
76.4930121834711
75.7254170841755
74.8556828745731
73.732993436715
72.6247194061429
71.4904121414852
70.6351052427554
69.5922384837839
68.5343004902902
67.9018902985126
67.6478829485558
67.6397094652963
68.0478049529029
67.9734319612976
67.6756648930324
67.3266433526661
66.8434742081212
66.6815412308376
66.8790312138142
66.9345376913847
67.264498978144
68.2915259810341
68.9631942266915
69.2350169859198
69.5164622642043
69.8448133854242
70.3200799387786
71.1869167995982
71.7995706298049
71.9372665071667
72.0078587819397
72.0052107376244
72.128749366899
72.4895849942016
73.014448175607
73.6500889088509
74.2772190698268
74.2718169811643
72.5460562739466
68.457643393429
62.6597096896619
56.2019845591818
50.128366226053
45.8446348813685
45.7188167781376
50.3586512677429
56.4420987709082
60.4698351723976
62.3735253198332
62.991864574079
62.9306965202956
62.5682642877566
62.2144620070533
62.0521205037323
62.1981586792658
62.6848854171489
63.4810987905742
64.4114550752105
65.4417513723843
66.754530855015
68.2443164345733
69.6371142625932
71.0388944373434
72.5624267689643
74.180560762451
75.6813443287472
76.8022826618182
77.42537612121
77.6063520509691
77.3951321944336
76.7801998516405
75.7921543020199
74.5049009788417
73.0531994780317
71.7148788203812
70.8105913389714
70.5169006187078
70.7071755658773
70.993334732871
70.9863689513031
70.6558713819291
70.2129504602478
69.5527008695272
68.4254156664167
67.0318706645532
65.669373789856
64.4086843520444
63.2583151333727
62.225327531092
61.1292821958914
59.7755301089104
58.4630226954975
57.4602014536315
56.2926682521376
54.7246886913421
52.9242259529283
51.1098074844521
49.4504907604354
48.0304773055941
46.7413966796819
45.4749457307422
44.1846857339691
42.9583528335384
41.8989649637683
41.1408645082416
40.6635496110354
40.3643847655996
40.0794181923838
39.7859832201365
39.5418389978648
39.4286085440309
39.5202119426065
40.0702463687434
41.2131496364568
42.7321166271064
44.048415556793
44.8024427425651
45.2313340572515
45.9189333379955
46.9434858741317
48.2969559459531
50.1206788622315
52.3703626365941
54.8090770093648
57.2421825517005
59.5552735270436
61.7711525725159
63.961669816016
66.110152067879
68.0738651243942
69.7025056518239
70.8658499971155
71.53900549406
72.0558225943056
72.7212673309402
73.4442685811731
73.9202419153422
73.9672202471395
73.7763029404938
73.6369855363172
73.7505545060707
74.0962694785885
74.3831191224284
74.3142378387644
73.8107550861982
73.1105902259116
72.4888314815334
71.863536243753
70.9934815981703
69.6823688070011
67.8535720687558
65.7534675602975
63.7633667117459
61.9239990309908
60.0583725841909
58.0507450010631
55.9670246988261
53.9080270885704
52.0071734804127
50.4351268376199
49.37099992386
48.8451487947458
48.7267269912368
49.1178175897016
50.3197113393461
52.1914802803848
54.2831031681231
56.3401066314675
58.3064735111779
60.1065043444708
61.6911653943257
62.8721980801063
63.6382424169572
64.0630892317334
64.1936751242197
64.2106205090073
64.0874432741412
63.6279937234031
63.174986927508
63.1231399218538
63.1712678814983
62.8153096534724
61.7892414534567
60.311055252731
59.0859949713701
58.5181248556552
58.4998012786298
59.1092822538587
59.9835291752237
60.3002909219111
60.0272176044753
59.4335376694211
58.7478720557608
58.235939840558
57.7751042000832
57.343920322687
56.8347518277326
56.1710488641812
55.6075327316198
55.1558972525711
54.8109285526964
54.6183187339096
54.3873727371272
54.0050704315539
53.6514371074217
53.4451591957718
53.0067015266974
52.7887649515817
53.0325828285062
52.7762917209748
52.207446291597
51.8436082090385
51.7331800196152
