900
3999.43349933624
648.556783676147
1
128
8
98.7878409883798
98.8640998415847
98.8343084289597
98.8035849799157
98.7873142203807
98.8137723595816
98.8386743845855
98.8037299072468
98.7746374681227
98.8653463882664
98.8846193235035
98.8239053954212
98.8295971604208
98.8754246354895
98.8833628525753
98.9074704054051
98.9138198276623
98.9662939930865
98.971740846528
98.9695127640565
98.9199138793056
98.907875259458
98.8792607401581
98.8657417410008
98.9287687895623
99.057794243384
99.0964229552963
98.9870519476154
98.9580112133495
99.0392983763606
99.0842917991938
99.1165815336453
99.0572950582893
99.0891376614036
99.2049093728201
99.2299942906697
99.1075245569812
99.0934586738959
99.313054906921
99.4053836768612
99.0186845238095
98.9779933572647
99.2366260703124
99.3293124269013
99.1085038187106
99.0451588117625
99.0991857275018
99.1682358571051
99.1513888780411
99.0141275417808
98.9385282769636
99.0985057168537
99.2847451707152
99.2148045508579
98.9965472166315
98.9221347726349
98.9124821190521
98.9535110559337
98.9517185442894
98.9158665389023
98.9598459899333
99.0675626111821
99.0795035769395
99.0190644213831
99.0476854437883
99.215754006242
99.514443693857
99.7084112230901
99.5126137755627
99.2793267933269
99.2024223970285
99.1457687693114
99.00048953542
99.0275784117527
99.0116140356477
98.8367302879804
98.7819743869839
98.7972088657964
98.4965342892807
98.1477889836599
97.6565705218778
97.1703650721414
97.0937298789167
97.3522004086706
97.4750067032204
97.628476522996
97.9031372421455
97.9861001825526
97.6310361654818
97.1648679768031
96.9132029626334
96.7910832265631
96.6657846334906
96.6376339441707
96.4600197991596
95.969843059521
95.5981054430919
95.4160447397895
95.3387067475298
95.0599056476476
94.4678529456539
94.1173946794005
93.8815324563216
93.6717331925184
93.5054040061086
93.2178420370712
92.8889533074818
92.5880086282082
92.3691393250301
92.2102714955556
91.9325449087077
91.6097803627012
91.3714742609354
91.0824309694913
90.7527568933495
90.6084955119689
90.5873088671935
90.2981828965911
89.9379603253018
89.6813926765104
89.4969234803645
89.3397560053031
89.1193552098534
88.8209012749874
88.5882200438164
88.3709767429237
88.0963220410585
87.8879003307935
87.7726134981246
87.6421941406845
87.430106626772
87.1832004732514
87.0151326340464
86.8949342087604
86.7192760511631
86.3767943175445
86.0742528671024
85.9316848403375
85.8573208635294
85.6883619674109
85.4128426901319
85.1333619342725
84.9213697796582
84.7677719902041
84.5405024266465
84.3054157205408
84.2341734152647
84.1223965719972
83.932562419841
83.7670078468675
83.683243004775
83.5850065173683
83.3969078136689
83.1892272714951
83.0882026947046
83.0095295543389
82.9704722540081
82.9119284560191
82.8009549421647
82.7617731537713
82.6779218878585
82.5620764405466
82.5175432855367
82.4444946676864
82.4084370464896
82.4617262133484
82.494580063977
82.4602327765036
82.5045272085424
82.4583918004892
82.3501735032967
82.400049873174
82.4462859035262
82.4296414041222
82.4719469845194
82.5344955072232
82.5553368410891
82.5538302682949
82.6461288694278
82.6819602667503
82.6957739206956
82.7098307388816
82.7328969408339
82.7487355508377
82.6968275313171
82.6733054146214
82.7749770259688
82.8080283388119
82.7575397330504
82.7127627885607
82.7084853406556
82.7351074762422
82.7460105096839
82.6929618323489
82.7534460501038
82.8344179412177
82.8899906805178
82.91430953196
82.893925580718
82.9143674244913
82.9928576858062
83.0083966690937
83.0331908261275
83.0764163755084
83.1192819876379
83.184000152339
83.2672521566443
83.3183381979473
83.3732100930084
83.4111910355544
83.4332569010235
83.4966614807919
83.5715180799093
83.5991087457711
83.7066067926565
83.8196360353092
83.8925603536182
83.9542087366597
84.0626037451261
84.1223798728543
84.1789408479687
84.281070093948
84.4066770137411
84.4718152877132
84.5294031005468
84.5419025275597
84.5365558146217
84.6885753474704
84.8765225933488
84.8183406563513
84.7911528511639
84.9573618157552
85.015029554113
85.0078599095355
85.0381104998805
85.0044098047875
85.095023061287
85.2356697071976
85.2623962403437
85.2846394432197
85.3338088759209
85.3852133391354
85.4260540091333
85.4249911575064
85.4605463715673
85.4725088872162
85.535622060237
85.673816726093
85.7248323063793
85.64465843943
85.7126961894493
85.8001435986691
85.8123385022783
85.8408559866461
85.9515903125589
86.0184435767814
86.0808469685386
86.1907664570305
86.2862503164353
86.306667746519
86.3423329707823
86.3352556528992
86.1922976609558
85.8812616383149
85.5048107968051
85.2431965255224
85.2804862982481
85.5245537427997
85.9035941344711
86.257961879928
86.4989131107203
86.5411456819603
86.3709995938529
86.1060685683816
85.7173174636998
84.9710170186515
83.8067563367232
82.2232707591983
80.3938870533379
78.7317932509598
78.1956117720077
78.8401621202683
79.3630464656486
78.823597133456
77.0635495664798
74.2386130375118
70.6103786450023
66.2648209867888
61.0558267967169
55.5898897867085
52.2442116353542
54.0836036401747
60.0637237976612
65.8017579127939
69.6252591214275
72.2868120758766
74.4943042205693
76.4545845564274
78.1787168881174
79.5797679455382
80.3201967186402
80.1524085636084
79.8930452240544
80.1924030036183
80.098071502325
78.6051000710948
75.2782374481859
69.3926231788492
63.5173441312675
64.3408512477344
71.4541081967942
78.3154367641658
82.4834393295587
84.7163998992485
86.121982193025
87.2015762125246
88.0998661402559
88.7696785979404
89.3035952288909
89.8349677181096
90.2777852939528
90.5313326837449
90.8681992072203
91.1880895772422
91.4728882981732
91.8051555227141
92.0139296738652
92.0796769670529
92.2820585785262
92.5698475103059
92.7531783384805
92.8244004046931
92.9076677187474
93.0076822308176
93.087906029818
93.1856392057063
93.3903548989672
93.4917160725029
93.5174874817724
93.555778222262
93.5851122326002
93.6769902787691
93.8608442579361
93.9851512194583
94.0865085245332
94.1372621836324
94.221317664368
94.3191188773157
94.4126356254023
94.4499564682294
94.5135068448679
94.5754357808909
94.6033423940175
94.6263980942906
94.7150331609278
94.7795587549439
94.8149852934209
94.8332631418288
94.8665114859892
94.916596648128
95.0458774852364
95.1202303146512
95.1793310246443
95.2258152785738
95.2692450597921
95.3374785376595
95.4828454194136
95.5725351502998
95.6578455912686
95.7420466310667
95.8092245462696
95.8955889217202
95.9741268682448
96.004845453396
96.0852199963357
96.1496341000859
96.1920248820286
96.252988040394
96.3476761670812
96.3744046660732
96.3841239154845
96.3734254246915
96.4481925575913
96.5148060001246
96.5473810369814
96.53932018369
96.5520681503213
96.5542457988337
96.587895777435
96.6238151393148
96.6919136521415
96.6870859664154
96.6489447702107
96.6249931896478
96.6341264867527
96.6205746465142
96.676907379604
96.7202005060974
96.7302448219005
96.7222658171284
96.7363842867459
96.7605239954772
96.8066710357886
96.7429720866158
96.6742998786617
96.7070321958327
96.7768581389153
96.7797333904075
96.7767847199137
96.7227899066365
96.7419187812133
96.7939063115657
96.7884204873637
96.7524785959562
96.8163555926101
96.833173747127
96.8006911461673
96.8099579311227
96.8212750708927
96.7731792609947
96.8085193043977
96.835378099988
96.8081196324112
96.7848563094428
96.8135436209544
96.8011043639483
96.7750024906249
96.7850507084398
96.8284099582026
96.7707693102139
96.7282207273434
96.7384882394867
96.742269429768
96.7472693666782
96.7500665178962
96.6985800543645
96.6827516800136
96.6702554801732
96.5865749709117
96.4677747930778
96.4349879196668
96.4258390764329
96.4781040669205
96.4783662924739
96.3828566514934
96.3181160741835
96.3738660865143
96.4016644001787
96.3866285186686
96.3814619814984
96.4164431417154
96.454867983523
96.528729237451
96.5952793719536
96.655312308236
96.7139749221487
96.7594903693017
96.7526233608782
96.7970785490102
96.8841975530515
96.9803732647574
97.0765200073353
97.2154783572253
97.2980960696446
97.318571128546
97.3691404722993
97.5383565790112
97.6288602996466
97.6381241993404
97.6859939222299
97.7435288080792
97.8706417586779
98.0408595566403
98.0633199882127
98.1534970671304
98.1832578736241
98.1834087417624
98.3865583318563
98.5143780894842
98.3560798057955
98.3707976553379
98.6593129467694
98.7758960956759
98.76589269369
98.8218365944893
98.8155303515778
98.9943162082971
99.0423051746058
98.9884369704728
99.0163622155089
99.0087006832325
99.1927306114356
99.6631848672954
99.9411780775705
99.7677061954804
99.3059260151729
98.8536055286114
98.6551255570172
98.39290023052
98.1940499789039
98.1067320653861
97.9426631120163
97.7419420695771
97.6146926314106
97.6125281519313
97.6377800171605
97.6717848665188
97.7161560703062
97.799640114111
97.8051105362389
97.6852864991523
97.7698678922368
97.9394879626123
97.9057083644186
97.8256440460896
97.881198476927
97.9418562753386
98.0489114534392
98.1846358626778
98.2559698377887
98.2478630429943
98.2080162868142
98.360009104284
98.7870270963394
98.9621502746104
99.0246419430972
99.1232629651729
99.2586826700285
99.3815206329509
99.2588122592489
98.9497485754354
98.9775237555553
99.0859899140513
99.1047622600524
98.9029934743954
98.701974578203
98.5479678191157
98.6285987085782
98.6556179425291
98.7588772446434
98.7545416117952
98.8724512131972
99.149951594124
99.2575773128035
98.999849482379
99.0040739042369
98.8874612277628
98.6812991236472
98.5174871271001
98.4459942013589
98.438303519957
98.5734285616357
98.3648346145879
98.1779555723698
98.1661241238984
98.1605518598613
98.0132808792224
98.0340642295586
98.0601084720466
98.0850619386741
98.0458830375571
97.9561878711544
97.8013102668207
97.8005159125566
97.7956940600659
97.8111657642089
97.8416988568225
97.8713551483373
97.7840506809009
97.7710542064485
97.7328467969478
97.7609969962925
97.7249316797284
97.7103042230547
97.6610831169719
97.6477536276456
97.6326653904802
97.7004996759328
97.6771268223394
97.5883638851464
97.5317409407067
97.5598206575979
97.4832308388009
97.4220359616268
97.3844513418298
97.3780951278989
97.2940255763427
97.2567886780173
97.1729889955437
97.1160475070836
97.0442747324919
96.9684106447835
96.8299692535787
96.77082701144
96.648826440012
96.5190191868653
96.3616282641996
96.2430971628593
95.9779587935895
95.7082058086425
95.3538353400994
94.8409830516789
94.1379271216732
93.3593047627245
92.525102064755
92.2508017169895
92.3054305593606
92.5621216538469
93.092487536559
93.4544049678799
93.5130554286082
93.57620733784
93.5004348621625
93.2230796582276
92.8332947008876
92.4717301522205
91.9697044656006
91.4079193452321
90.4480956890109
89.5623735894479
88.6562881639492
87.5529829284338
86.2342474853932
85.1063896324667
83.8621016910792
82.6355010691774
81.3587103443034
80.1017189843536
78.8834963988128
77.8709411246574
77.3348599862622
76.922507197658
76.2648571052954
75.508245909293
74.9566375956713
74.7124042590684
74.0536506214895
73.6013401625421
73.2248224259655
72.8349296080877
72.566423387593
72.1854714641615
71.5758571565188
70.6582637468521
69.1983326023352
67.1913781522888
64.5279112846843
61.4904828287925
57.7613466187153
53.5042579906495
49.558744968232
49.1788229526911
52.9454995336575
57.5679028980092
59.6972643948419
64.9811304760182
68.4681875944645
68.327149949615
66.4538479072474
61.992002687694
57.8477526533698
60.7231688086125
67.0858919435032
72.108007425628
74.9896011185453
77.0648178984343
78.1260507582278
78.1870198731335
77.9382178336571
79.031896074445
79.3558815961253
79.1112637149336
79.154464657355
78.7447046397847
77.7867317167573
75.6425341441103
72.3579583348537
68.5015290917063
63.7645775099205
60.4453422910397
58.9141686575124
58.5599770269793
58.4861455206698
57.9540319375881
56.8024134680486
55.8070727494578
54.769249651631
53.3915721062237
51.7907450263303
50.3969026137245
48.7814026055489
46.5197851444866
43.3008276788446
39.6203316735077
36.4065164490899
33.7524877156346
32.3017241755683
32.286288063897
33.4934770953188
35.6822686116251
36.8601729678864
38.4682941096299
40.8745709120428
43.2424992739994
46.3373834702681
49.6395699040928
51.3825775118536
52.7686590233448
54.8958520838792
56.4044581325589
57.4274235793159
58.7458560072436
60.1995671458677
61.6794310588864
63.8495098982879
65.8352842951153
67.1363969467038
68.3468572012232
69.0587750518879
69.6607186226423
70.710648008231
71.9179050895238
72.9091091551389
73.7351666328381
74.4538180257841
75.2076492440185
75.760291271585
75.8395741521329
75.5899060344053
75.1028900573509
74.581333868955
74.4383506209324
74.3864046150755
74.0315610026796
73.3749401694928
72.5069281181505
71.627755057603
70.9492766839839
70.34044681764
69.8730836164092
69.5936387893055
69.409231380301
69.3967504225782
69.6605982172385
69.7165434607626
69.383095847172
69.9666733546794
72.1345811156886
74.4055203531914
76.1673378675315
77.5821039937901
78.6813018186625
79.5623965545176
80.3387973901454
81.0116404402845
81.5108944832796
81.7259367252387
81.8507567053259
81.9844212165586
82.0022303186979
81.8554029611329
81.5910332903669
81.3059104216037
81.0689994480997
80.8068766886632
80.4307423387163
79.882519581391
79.187459081494
78.3644651984943
77.3848853356308
76.1446714924752
74.6531583145395
72.8404224688924
70.5394027192003
68.1271339684672
66.4660757376556
65.4858966829165
64.4585303142834
63.2595418783763
62.1950679392874
61.3300769780498
60.5909034939102
59.884796229769
59.1726090100107
58.4185442656107
57.6674560768753
56.9109444689693
56.1449159128107
55.3636807566599
54.5635433434803
53.5831055958717
52.4998015780113
51.489993106142
50.4477357527478
49.1964875907639
47.7921273528286
46.4972061437061
45.8979447522802
46.1877915895093
47.041948495624
47.9256084270877
48.4483545492854
48.483719429414
48.5946314219178
49.4969117562984
51.3545358933352
53.8143591739482
56.5567824698835
59.3390428168457
62.0657512712026
64.6386607800072
66.9250408961634
68.7874968821493
70.256295505634
71.3606749694765
72.1758604925313
72.8136282412219
73.5087449046991
74.2826163432187
74.8870605412488
75.1246559127901
75.1271787006301
75.2135236718088
75.6685187880031
76.2417066494404
76.5171064233892
76.3884006933632
75.9615735747451
75.602861158222
75.9525496492404
76.9690642013352
78.0119239352178
78.7643156638382
79.2194718230014
79.3794321855886
79.4742052757855
79.3719102634146
78.5141432023221
76.0882468150405
72.1355892750386
70.7331210940943
72.2419640347855
70.182157408185
69.3890438813107
73.7315299864218
76.322216062353
76.6759871160463
76.8877223538011
76.7398843643337
76.0046094467765
75.366725716943
75.6002074667704
76.1138136558804
76.2615839987792
76.075886832699
75.6819423472884
75.3466527926235
75.0485637860495
74.6197275579917
74.1262753906698
73.5351189723215
72.6554443830556
71.07902368539
67.6609040388154
61.8071992790834
56.3855134890453
55.2233503724431
58.2493351411873
62.8477503186217
66.3331857598329
68.0330085858972
68.718474147459
68.9063511847348
68.8353876020989
68.6339428334992
68.3372642831616
67.7246694973274
66.3713202537628
64.3939070260366
62.2047954516913
61.1921764502581
62.0059816888358
62.1541696957854
61.0018289601868
60.4320987018129
60.5752764040208
60.602671439641
60.4679239497262
60.3141526832795
60.0052420841177
59.8141229873585
59.8061863061683
59.435445292753
58.8388939905488
58.3847929087315
58.3384633355849
58.9972297543598
59.5913661852602
59.646112157528
59.7127763724821
