900
3999.43349933624
648.556783676147
1
128
8
95.1217452123775
95.1480991487982
95.1764680817566
95.1675042563315
95.1708239343713
95.1813769603975
95.1856874602129
95.207107851664
95.2199505499296
95.2123327401814
95.2170547815898
95.2602697373177
95.3062674838254
95.322591225585
95.3098777683042
95.3114923543751
95.3100694021474
95.3149138084798
95.3235490749657
95.333973434067
95.3928404525546
95.4580744494322
95.4285460786608
95.3574428038156
95.4094714967414
95.5541528468227
95.5806654291477
95.4563866922056
95.4760524695809
95.5622966820669
95.5696475148273
95.5682526222062
95.5359901494712
95.5812484631706
95.6693665246201
95.6468501575051
95.6712402190875
95.6973870251492
95.7795580272664
95.8250187218906
95.580106283057
95.5953424571615
95.7335940611205
95.7853676705095
95.744039324079
95.6854816777918
95.7167405985534
95.8149208339773
95.8150031549054
95.6902631914352
95.6710555770226
95.7733154538958
95.8600692116798
95.8663413046581
95.7798317775456
95.7073390491664
95.7560106318232
95.8372352403494
95.8395803714312
95.81541910738
95.8186835373463
95.8419332497035
95.8583232397099
95.8902268364007
95.959477175469
96.0490235098706
96.2438594836835
96.3623621190614
96.2990935056237
96.1870959894053
96.1800969777368
96.1683149541653
96.0348175756638
96.0252671752729
96.0922856791118
96.0819990252297
96.0782693031265
96.0722246364997
95.965299802486
95.80055087916
95.5826649177163
95.4553463739456
95.5012392172893
95.5867476648066
95.4649068366494
95.4135136131329
95.5542233364786
95.6019764692443
95.3735031958184
95.0442128318334
94.754079960729
94.5538912553054
94.4849755789151
94.5609947072782
94.351289460961
93.8419451464003
93.5461473648221
93.3467433427426
93.2158413833079
93.243923151585
93.0191067227528
92.5888388675846
92.3249120571104
92.2051563772209
92.0613610076332
91.8213371134093
91.4919987360451
91.1654204933533
90.9238056119271
90.7709312368136
90.6983574480649
90.488968710467
90.0993225597023
89.7674441913107
89.5019704018895
89.3488033886572
89.3969570787156
89.1620542279618
88.7109645664114
88.4333367036012
88.2771223819311
88.1741990931323
87.9578207875844
87.6432478509809
87.4880480581266
87.2437507793046
86.9680414248908
86.7949763502946
86.5284130286598
86.3251023307827
86.1016489341131
85.836915653226
85.7263963368649
85.5963106504582
85.2613723897634
84.9055623774037
84.7295202025246
84.594860088771
84.3712518190372
84.2698987718417
84.1487825847147
83.9022544529705
83.6944211749178
83.4608239719816
83.1630804130497
82.9712299278411
82.8761429149527
82.72018205325
82.5122765723804
82.3604295722732
82.3318859435037
82.2205970401801
81.9997725320497
81.8267901058085
81.6407340081823
81.5030257680346
81.4963481553832
81.4949649740507
81.4012189980327
81.3065329894039
81.2111231565443
81.086187315684
81.0647621659373
81.0292424956174
80.9447986574391
80.9531016890726
81.0109163518518
81.0228704717653
81.0574493279539
81.0618755218334
80.9652816650081
80.9962306761022
81.1517405564202
81.1980116471326
81.2443671821216
81.2783069551376
81.1962419758925
81.2904450792072
81.4946032671253
81.5417999844664
81.5712456128232
81.6217976250611
81.6561272923829
81.6661109472799
81.6416110898053
81.6663911144658
81.8036829190589
81.9259261565207
81.9010323810066
81.902694410577
82.0328233755936
82.0838226566859
82.0835956449316
82.1197908004511
82.1698808838637
82.261150016005
82.3543950719528
82.4222888490544
82.4911516627437
82.6111825609951
82.7041335341846
82.7633550588517
82.879573751313
82.9326500480931
82.9816147326862
83.1231542545728
83.2585614549437
83.3851581100026
83.4950576981242
83.6266706571596
83.7509530719625
83.8832723419941
84.0326341731142
84.1773387383144
84.3070579935162
84.4628369166674
84.6099665685241
84.7033101554538
84.8633726011919
85.0449423833962
85.208133768368
85.3781751131018
85.5310424954986
85.6899454567668
85.8181450769765
85.9389390762082
86.0579967668286
86.2889672434344
86.5187812972006
86.6159304478089
86.7371845983523
86.8841225065251
87.0336941239385
87.2156523227393
87.3385669333808
87.4236517256568
87.5673684235647
87.7115648892904
87.8439716430804
88.0054017775974
88.1546368229892
88.2340298586337
88.3537840900488
88.4611638023597
88.5561923870522
88.677228574189
88.7720609337017
88.9036650934036
89.0808701609909
89.176198494972
89.2639039538219
89.3703948588921
89.4413879753993
89.5348483302755
89.6754620421931
89.8076564367084
89.9231781935871
90.0001155206298
90.0604643855539
90.1433623909236
90.21181106607
90.2630677320655
90.3776938742855
90.4380658489344
90.4804335322173
90.5628815769067
90.6451781751432
90.6808651464697
90.7074575072539
90.7420039788208
90.8145538251334
90.8197532043548
90.7246650632476
90.5582538253347
90.4660562809039
90.4175026589369
90.2751041212814
90.0686551716325
89.8808726054037
89.7491266384233
89.6962836885194
89.718988093488
89.751401109116
89.7065202401173
89.4928635946709
89.1348596608275
88.6596323101512
88.1174624804152
87.4846244779959
86.81739979447
86.5504569562133
87.0275110311963
87.8946518224223
88.5283668024906
88.8355585366511
89.040959495663
89.2741537020702
89.5270864766941
89.7279753968521
89.9006990255767
90.0382395004824
90.0789807994739
90.1363712777155
90.2974431911892
90.4417241070622
90.4733585343321
90.2770679910835
89.7820531985859
89.4179649392803
89.8155622375972
90.6943123028774
91.3608216756716
91.7496218345314
91.9895894862015
92.1336278770492
92.2242467143464
92.3390720801432
92.4276150189886
92.4937885915888
92.6088289483691
92.7431485747591
92.7861338128482
92.8351370104322
92.9337186596547
93.0161172287962
93.1082787030148
93.1683479258757
93.1650466386355
93.2037321149251
93.3022154910746
93.3706665598293
93.3983038746698
93.4169388994582
93.4381596515804
93.4693480198758
93.5019180211401
93.5682275390672
93.6120245481379
93.6516610511442
93.6512856195845
93.6392066579704
93.6626900233324
93.7076130493952
93.7541084240635
93.7972787460899
93.8122545644881
93.8526397455774
93.9113306060213
93.9603710662205
93.9898291189718
94.0149611015316
94.0360251952145
94.0666859480761
94.0750302616598
94.1274429642003
94.2010710931997
94.2394754858629
94.2557959055636
94.2612843710837
94.2718881680895
94.2840300002028
94.3133574219087
94.3907421354514
94.4635439729975
94.5219011136155
94.5449073834787
94.5808640483355
94.646235372422
94.6877676291645
94.7360876432421
94.7980610249258
94.8642454079553
94.9008270918217
94.9010616806034
94.9277996620637
95.0269375931449
95.1195956114054
95.1509345514832
95.1933132140411
95.2132354915898
95.2521737756361
95.307040442588
95.3093315253416
95.3469013111212
95.393826120629
95.3449584028488
95.3489267727237
95.3452027580657
95.3226017522054
95.2929203307641
95.2503126716254
95.3005708360165
95.4224729725608
95.4715251467885
95.4604194790448
95.4843437778499
95.5464328225055
95.5646382884291
95.5962427987912
95.5857140838285
95.609189420952
95.6695427037374
95.6757599772652
95.650220955072
95.6476446367969
95.6518472897932
95.7267015056029
95.7924800720099
95.8032839837604
95.7957733594093
95.8220428208306
95.8104278967132
95.8168503915589
95.7890655565518
95.765030726115
95.783212007296
95.8209060964193
95.8263055510161
95.8335758898545
95.8910814170142
95.9814651661406
95.9933197932227
95.9420129828763
95.8977928389729
95.8832465866425
95.8911937511364
95.8975037439875
95.9164129121113
95.9642795833889
95.9670058434143
95.9454412259731
95.8867920102976
95.897635335457
95.9290255818569
95.9046518724649
95.8094124628688
95.748825418749
95.7637769923633
95.7474950850679
95.7041850791535
95.6843242384646
95.6710530632959
95.7364750376228
95.7357281461629
95.6770517182906
95.6747546638667
95.7218176378129
95.7470572044188
95.7528260798033
95.7436674847305
95.7924613818254
95.8793539066628
95.9398392012409
95.9531214046538
95.9883878594443
96.074854963234
96.1778988548134
96.2387157269028
96.2332162408607
96.2769980548044
96.3500115256393
96.2997574681783
96.3543867171526
96.5803983047036
96.6243405351649
96.6433827464458
96.8017114008265
96.8015280965304
96.8275374463115
96.8429010146801
96.8025662702204
96.9164306606058
97.0204670925403
97.009743363601
97.10106929212
97.136367284162
97.1593041905411
97.3296085228275
97.3759046536389
97.2355361521455
97.2533923726092
97.511520715198
97.7176184575904
97.5525852853675
97.4478259433647
97.6485066892666
97.7971988076127
97.9594074452166
98.0728044628769
97.9860974911316
97.8523395613105
97.9498784148775
98.4195153849802
98.730053133806
98.4928400479082
97.9266973292062
97.696379752504
97.6836360064033
97.4617875812506
97.1967798420431
97.061472170452
96.9168106168464
96.7832953911257
96.8638692926575
96.8995648199339
96.861433086393
96.8959706523381
96.813366211946
96.7887975170737
96.8963024386047
96.8286420464131
96.7885832606443
96.85411314005
96.9151687891888
96.9711287625645
96.9905622028197
97.1001184435915
97.3024388158847
97.3183576531325
97.2625527356955
97.3205580336635
97.4649582094448
97.5898282839319
97.6990762175182
97.7800168882503
97.9377565997025
98.1536760916186
98.4186997510854
98.6406247541958
98.61028868392
98.4144050084209
98.3002185573657
98.2854056987604
98.3380278438246
98.177821949915
98.0015628930485
97.9887882480351
98.1557734213781
98.1469235743078
98.0385179210555
98.0546251904301
98.3364380045345
98.6238247303942
98.568359314381
98.2675201142461
98.3073913854847
98.1529572676619
97.9564451411041
97.8897155227677
97.8966952896185
97.8336014172388
97.7426964840728
97.6760261603015
97.6402943474562
97.5190769205861
97.591699579697
97.6010105408373
97.5713525979349
97.4971729190601
97.4155416640229
97.4209325279523
97.4541488198275
97.3431158646981
97.3466220886223
97.4244619233549
97.511313324951
97.446856051926
97.3635170846653
97.383383430716
97.4366710974277
97.3815841486871
97.3826383016374
97.4303183893905
97.4135107139068
97.3052453904609
97.3592551857098
97.3814028747821
97.37890725158
97.3143193468353
97.2425409399411
97.2258823051935
97.2687809268218
97.28352072167
97.3182499025533
97.2417252871002
97.2184080839004
97.2160395828983
97.2066813852479
97.1451506096361
97.1177573213556
97.0883107764741
97.0688996302265
96.9837617336843
96.8942475332321
96.7819027457805
96.6984630162775
96.5103792176838
96.3540660576975
96.0588028052982
95.5988197523371
94.9682382574489
94.1784449144749
93.390421433927
92.8994574584692
92.6536260055786
92.5170850855831
92.3767620227022
92.2875239863228
92.5095965418318
92.9221219555963
93.1430307400791
93.376583695186
93.6522191117526
94.0114835076072
93.9466831799444
93.8341990689406
93.6231703074632
93.2652601494017
92.3010725883185
91.1467178686874
89.9775200414256
88.0722751008628
85.0568086272806
82.6477584408006
80.0203053005269
77.1725936019164
74.3651950052584
71.5717970469276
68.9057578503321
66.9320151918036
65.3413736337425
64.0598595152348
62.6960399254741
61.3388656112719
61.4659400346258
62.6022746772469
63.0619579177619
64.8526301035478
67.1382209223952
69.0319561709558
71.0724545835025
71.9734106570129
72.7134224646352
73.3795503246865
73.9364920908901
74.4689523441005
75.1615904482265
75.7779029596124
76.2669556238358
76.2672534635209
76.6061459470993
77.5556175255798
78.820016163728
79.9624250408577
80.2801972686563
82.0010693182152
83.3151401635897
83.4752037994898
83.4974331876244
83.1479329445922
83.7642233276905
84.8072757301774
86.0665551010855
87.0407725087114
87.7078612810941
88.3387568223376
88.7052105882932
88.6533785631914
88.6524282433945
89.650351204263
89.9584971759452
89.981944787125
90.2052776084762
90.183980445485
90.2153365902939
89.8911656964434
89.326109006151
88.6470900946943
87.9670519969179
87.4598916500977
87.1525808425713
86.8681625076027
86.6620442535014
86.5560509070553
86.378575795247
86.3551094473524
86.0470536987248
85.4418496655233
84.7149188839721
83.9184279882504
83.134998138855
82.3878210499247
81.6904529422306
81.1278453855795
80.4867365420111
79.8913467461793
79.5047764030211
79.2768366308285
79.1765765410935
79.2506242149711
79.0033512141888
78.6205507074532
78.1535634425206
77.6268311403164
77.3646086022973
77.3310734178771
77.2508909855685
77.5311502598896
78.4453749387401
79.124947973142
79.5472343202344
79.9633651130762
80.3897030292355
80.8388329729378
81.4164649937847
81.7582239724624
81.8650642611655
81.9821774473224
82.0624878018654
82.2354062197151
82.5921665722261
83.0510541178193
83.4805254453799
83.6754880291687
83.1786742894305
81.1089726751847
76.9531022264633
71.3596031063871
65.1804124797745
59.333891131356
55.5252057757524
56.4408838599693
62.1960614235471
68.6147011272106
72.350615474178
73.8266709041605
74.1091013100649
73.8340359691188
73.3521103307777
72.9086632264063
72.6743300530812
72.771004840415
73.2475022911284
74.080394578092
75.1371248389307
76.3424478889141
77.5392226876441
78.5608555495148
79.5560742499449
80.7180688764758
82.0162156155698
83.349438172645
84.5486976325794
85.4275707147855
85.9101169252172
86.0266127512583
85.821734517021
85.2687264161174
84.3395537342175
83.0924542366732
81.6847063764736
80.4466090383154
79.8883164413559
80.1258556924469
80.7518295114029
81.3300876950257
81.5913434177838
81.3998582796706
80.6497411123956
79.3959575584146
77.8810980290992
76.3319211238627
74.8937645997241
73.7070389588688
72.8791053266436
72.4037601580734
72.0838471038803
71.6565157443565
70.9504438806749
69.9430007706535
68.6769136329929
67.2295885200461
65.6280867618957
63.9515026830878
62.3647017518192
61.04172510423
59.9827952696469
59.1200668796106
58.3828255207116
57.7303088790699
57.1309149475738
56.5867413410545
56.112276621086
55.8136723371734
55.7485541831612
55.9398032671792
56.4088924716801
57.2003547200993
58.2723071183422
59.5476847689881
60.9180330075317
62.1197197835275
62.8297414056729
63.169564936549
63.5144433813817
64.0847636514296
64.9659833264478
66.238838936984
67.8865066183986
69.8437288692216
71.9204575694344
73.9133169759879
75.7817226611927
77.595370023578
79.3755274987421
81.0296310572509
82.3272273432356
83.1444967310398
83.5127282491007
83.6370992959739
83.826952760013
84.2035257740756
84.6617599101854
84.975088450218
84.9621191650543
84.6204254031118
84.1712003522545
83.8467968786027
83.7301895578197
83.7533706524087
83.6275352698905
83.1914531243666
82.6857344339315
82.3477621440983
82.0354416300361
81.4205453280786
80.3713369219685
78.9008958375923
77.1598088560711
75.3789882426788
73.6010327001389
71.7289421202345
69.6810665795962
67.5263475078227
65.407927775484
63.4618987063963
61.8020787350728
60.6715881483137
60.2190216099223
60.3766859082013
61.1626973453852
62.7893060255476
65.0462119013389
67.4675667078023
69.8485423859917
72.1094110373242
74.1917032034008
75.9755260896733
77.2540059691651
78.1159906976575
78.717751683704
79.1646190882855
79.6119803825056
80.2137426390329
81.1458750988938
82.0705631503218
82.184575882664
81.3021773531938
79.7912182159438
77.9316923639781
75.961783602009
74.4875812993032
73.765607447367
73.7737387273784
74.4328486964686
75.2801282065857
75.6154049760251
75.2926523277049
74.8035077161042
74.2955911541766
73.8142143782874
73.6717428235947
73.5108103287026
72.829388751228
71.9192856016101
71.2163455539926
70.6585111979443
70.0785626685561
69.790804409767
69.7325579173542
69.6017526780818
69.3999985375674
69.1037127418994
69.0561552803092
69.177765265151
69.1958874812891
69.1208397284205
69.1632252466594
69.0819911524777
68.7760531137485
