900
3999.43349933624
648.556783676147
1
128
8
96.9661430364405
97.0280137855542
97.0183611601012
97.0225823950685
97.0042823031888
96.9524233842568
96.937345760792
96.9869383030426
97.0670223609805
97.0955774480198
97.0729922214368
97.0782342875189
97.0704876319416
97.0491967028748
97.0987668949731
97.1049452590828
97.1340584073738
97.1861469419733
97.1986424351682
97.2248798281433
97.2038999286696
97.186303874659
97.1469878569175
97.1512633093338
97.336276900694
97.5707366799527
97.3907424815039
97.2082943257618
97.3558681941568
97.4105078215394
97.4130029908996
97.4467495147464
97.395686131264
97.4452108397035
97.5685790430399
97.5764988913254
97.4367631940828
97.529263196334
97.8295237924936
97.6021579748625
97.3266430541688
97.5369687188768
97.8007524781075
97.7711271105786
97.4764920112675
97.3674390826395
97.5530339098516
97.7960258465145
97.7591368539966
97.43319591423
97.4346851296252
97.6991600988547
97.8178100246594
97.6485451086572
97.4278793060583
97.345874343308
97.3775282020116
97.4971838446311
97.5587537310808
97.4761669303074
97.5115433564073
97.622628140949
97.5527605002261
97.589950578547
97.7747300930551
97.9972321226314
98.1323642000548
98.1565394055325
97.9114402189282
97.7675292000613
97.994305077401
97.8517763251522
97.6402612986851
97.651863034017
97.5686688850314
97.5786542596265
97.8335192075785
97.6878443750435
97.3194349509632
97.3254722006813
97.2230386735447
97.1786381596947
97.2890231874908
97.0148873805167
96.6733856859883
96.7755675896728
96.8395989551602
96.439856722613
95.7675201077171
95.1691447815306
94.8987844990844
94.6567671005802
94.3445714269905
94.2057598534308
93.6152553193466
92.8395711708483
92.3880733780258
91.9760038115005
91.7511464768297
91.3365303535153
90.65276024424
90.3154323492665
89.9682599746322
89.5997839958514
89.206677424431
88.6288118900396
88.1139623677943
87.7711038192657
87.3899255631458
86.9918543850547
86.6936923915254
86.2360065456417
85.8061682440673
85.3720671754891
84.8369255200477
84.4998287063902
84.2318709665276
83.7674965380853
83.3606153788984
82.9942412195835
82.5658390837335
82.209751691285
81.8278569214069
81.4318177449651
81.0401831727499
80.6056545846696
80.2531776845187
79.9140275072077
79.49030046301
79.0869220475644
78.7129832907756
78.3473086256977
78.0725418181303
77.7595339203862
77.2975292263716
76.8228511035829
76.4842191528052
76.2427490902904
75.9493121282552
75.5536618857551
75.1705664203749
74.9119745207164
74.6168410639312
74.2123593494675
73.8979797150569
73.6556339793482
73.3917204121262
73.191692799032
72.9525949307181
72.7810408801691
72.5884989170751
72.197025375276
71.9669052250667
71.7906541287154
71.5196629734482
71.4811794304238
71.4804541834684
71.2402627924526
70.9921050027515
70.956921827273
70.9233375710199
70.8563958024289
70.7995957609753
70.6552959458707
70.5661162804228
70.6383642517584
70.7162229684129
70.7736901176712
70.829155404613
70.8183947650101
70.7961674394274
70.885097655173
71.0012213495101
71.0975562746281
71.1933292678042
71.2819548782447
71.4063303212706
71.5911207811349
71.7389316887179
71.8265436955793
71.8785282544758
72.0236106828616
72.1934604915409
72.238044755622
72.248783280077
72.3160851289476
72.4604334800911
72.6358754360417
72.7190692994701
72.8398683598958
72.9970779985897
73.0830221599489
73.1500421062321
73.2139960624059
73.2888317491227
73.4479473299836
73.6415902230866
73.802880108466
73.8282927000374
73.9126683447835
74.1173282254504
74.3435572246747
74.5536451193294
74.7052452542096
74.8460898587353
75.0923592072888
75.3552689863846
75.5822603792221
75.7545447430573
75.9164403305991
76.1507986769342
76.4922393873469
76.8337814535191
77.059768798827
77.2750963712961
77.5454826550834
77.8438921402079
78.1581671322596
78.4261051767708
78.7167456315628
79.088187950262
79.3989560192607
79.6619408342723
79.9527318146697
80.2859935812431
80.5827366978604
80.8161705224887
81.1662293310073
81.5275739603184
81.7742514701077
82.0288313458533
82.3502089721083
82.6740979560861
82.9341075336056
83.1088617808224
83.2891399476187
83.5479911532673
83.8596855530689
84.1652431380715
84.4148484208813
84.6117671511843
84.847032767388
85.0997964659596
85.2608485172391
85.438271455434
85.6545437399165
85.8785836338758
86.1243015312526
86.3182948045029
86.4994843971342
86.6841102544054
86.8896923147576
87.0681538209687
87.1974246212811
87.3771495545282
87.6258539135004
87.7988944286169
87.9417917569516
88.1248013190801
88.3125223554929
88.4940634751964
88.6168214568359
88.7327719251085
88.8722960655619
88.9850509445565
89.0908386080713
89.191982574588
89.2929180127791
89.4069377260957
89.4595349175731
89.4637456428628
89.440940210948
89.3540822852709
89.2451349005578
89.148104186849
89.0108687793077
88.8036033378221
88.5178476742076
88.3150684187274
88.213800322599
88.2277939597844
88.3291978243281
88.3919839205298
88.3255458570262
88.0855268500696
87.7444268774585
87.34394167901
86.9452103960454
86.5604968076498
86.2461200666231
86.244733980052
86.7157915496905
87.3739966222085
87.8874066708799
88.2499149877316
88.5300544627681
88.7892584074343
89.0458683188998
89.272455028932
89.5036035860154
89.6839786170231
89.7758066348056
89.9318891733783
90.1648506966956
90.3355021490936
90.4237278310456
90.3796150598853
90.1513963135589
90.0632434607821
90.5312933908481
91.2375300790635
91.7803256151237
92.1700965187025
92.4298348311035
92.6010666368975
92.7120659915116
92.8370758061936
92.9527476467512
93.0473506332246
93.1691134197805
93.2687656463816
93.337372673461
93.4338945395736
93.5607724013635
93.6653290178018
93.7546196240482
93.8082391702847
93.8577024399539
93.9427902263668
94.0806844867437
94.1639107707287
94.1643221359885
94.1690214000274
94.1956566246482
94.2700966693246
94.3055607006213
94.3616889387271
94.4152261909419
94.4222179963663
94.4405784217446
94.4747884856089
94.5150642782069
94.5853892358742
94.6352898060046
94.6929881221506
94.7088417210651
94.7681175769203
94.8454040821575
94.8788174772438
94.894553796913
94.9191408169554
94.9616220365099
94.9985887983755
95.0245384943188
95.1019040569635
95.1948149413609
95.2321817054583
95.2661466564523
95.2802129387582
95.328233060628
95.4111045626804
95.4464659795794
95.4898065618307
95.5327194586663
95.5932444214889
95.6414245404837
95.6912392587639
95.756375478392
95.8340632785833
95.8706842337983
95.9466281223381
96.0222684613069
96.0558297976205
96.081359767116
96.1280488860612
96.166521729127
96.2560107039564
96.3213077005313
96.3958373237099
96.446247849117
96.4749460361073
96.4611216354239
96.4792614576171
96.5427825964827
96.5235339659081
96.4711374095368
96.4682271346806
96.4713042333115
96.4452094660126
96.3989175698519
96.4135048768068
96.512962848439
96.5934441467013
96.5961271634083
96.6069673511259
96.6565662404747
96.7231091904488
96.7711480127857
96.7653539148833
96.75668428226
96.7741531864095
96.7754734808659
96.8235891322612
96.8496284818485
96.848384241437
96.8347887942522
96.8488571415488
96.8999026096138
96.9217290820199
96.8957916390094
96.9238068474685
96.9583921521598
96.9544465885509
96.9422695881956
96.9802288795117
96.989011796
96.9209560625542
96.8986548096502
96.9667086756929
96.9742600174788
97.0564495418218
97.0771021734806
96.9775427176421
96.9262782313048
96.9784879163524
96.987738709982
96.9375423426364
96.9167362992942
96.9009310323085
96.9013755655964
96.9470777319007
96.9528390640597
96.9398446267475
96.9497359864473
97.0074832197023
97.0876621799613
97.1278263300731
97.1521122722318
97.168991645631
97.0784269100744
96.9796305682226
96.9322986418864
96.9363321300873
97.0022806932895
97.050262420556
97.0358011882138
97.0100225482325
96.9727978501922
96.949234423103
96.9375478201567
96.9682396109534
97.0641493255839
97.1218335483549
97.0779301576958
97.0565945123775
97.083764913719
97.083319540747
97.1132139977387
97.1963295463261
97.2271633301085
97.2664926413518
97.3569247502548
97.4079232997779
97.4824032513075
97.6240931976329
97.6597692211481
97.5837588755619
97.6447940135731
97.7483743917321
97.7298835147552
97.7575543359277
97.8199951957243
97.8636296296361
97.8873879262103
97.9030435429715
97.9641159819334
98.1316527061597
98.1861058538557
98.0960638788413
98.1250499842302
98.3191487760222
98.4453108731099
98.2872216690842
98.2445414774212
98.4021752238692
98.48114153034
98.6179920373027
98.8020488140939
98.8378178413518
98.7553174466499
98.856264016217
99.0799574308055
99.2518431440968
99.4907447986497
99.2471360463515
98.716674562267
98.3626196990514
98.0715986218792
97.9518106210992
97.9442429132823
97.718168029631
97.3384556977112
97.2025665928492
97.2462765101462
97.19725509451
97.199047559004
97.2599761434686
97.3182030080023
97.3394690244127
97.3285311899375
97.2793518997617
97.2456619771695
97.3034650238996
97.4975787759291
97.6236056806136
97.661473324815
97.693748229979
97.7496701756697
97.7527007042488
97.7283179024618
97.7978650301726
98.0099503391823
98.2126775478314
98.4451827004061
98.7445126344621
99.0082267682305
98.7334838098398
98.480448143905
98.7955265459186
99.2893088802166
99.2914276121547
99.2317674738243
99.2714449136142
99.0634405659503
98.7151917603473
98.7626455539511
98.728457591279
98.8122558929936
98.8711249321621
98.6828306265274
98.6798088179599
99.0479197686582
99.1201961748765
99.0860246431355
99.1234232318687
99.2162171107485
98.7983013653081
98.4784493505567
98.3712043073969
98.4936308379354
98.3837569330204
98.1800847456124
98.100398059934
98.1868239560676
98.2027194708647
98.2385127396004
98.1683985564068
98.0559846482851
97.9944407311383
97.9949954827534
97.9560488113055
98.0426356839044
98.037462202924
97.9720093744152
97.8748745357754
97.9058752620167
97.9539203908196
97.9560370574456
97.8572786864701
97.8254760927825
97.8782276587467
97.975842735194
97.8524417097076
97.8536634172255
97.8259904823717
97.7508647712376
97.7579189147523
97.8932272953684
97.8144381318813
97.657799574251
97.6698786539886
97.7507757226591
97.6567705837589
97.5739011782375
97.5269227274868
97.5127753473773
97.4623571456306
97.4446023578701
97.3925392805372
97.3795728590697
97.2615323949532
97.2608120923545
97.1526672900302
96.9283862990294
96.7878366920375
96.6338983363169
96.4129584705931
96.2361242748332
95.6074042617245
94.9202835027462
94.0950024757002
92.9130061315226
91.823838719858
91.2022366176226
90.7113073235452
90.397204009442
90.1561224538455
90.0425087512369
90.1694963007231
90.5384167461224
90.8945961989448
91.2924667114478
91.6185135499056
91.8443025119311
91.7513714123351
91.6339299968517
91.3656630086147
90.7619811793612
89.2375191416174
87.7979255177052
86.4710301215245
84.0798851172236
80.2690986879157
77.4516531061725
74.2740113558648
70.6887480180745
67.2873394168387
63.9171721527298
60.7558697650535
58.3216790409305
55.91965554496
54.1982084696052
52.3628425761422
50.7177924551327
50.6179717080128
51.529136758119
52.031364311968
54.1257277915454
56.8427941665183
59.4129559121595
62.3037469548195
63.7844974024965
65.1093911074495
66.1764775958224
66.8947014527894
67.4449790766832
68.0844211354101
68.6270925629987
69.1318796970007
69.2518372922288
69.6882661339169
70.2249408759363
70.7063866167074
71.0860747869825
70.8638600507317
72.3464414657719
73.7910697875534
74.175668076814
74.6176815719041
74.9527038773843
76.7743841588564
77.8476604479392
78.8560731718257
79.8413987512213
80.7244878895834
81.783550016002
82.7289868727696
83.2131014394569
83.5435130376717
85.2184792929761
86.0250015855562
86.3402598855756
86.992600493458
87.3005844625474
87.7011498620484
87.7230319457857
87.5417915450282
87.1904547004605
86.5859766397206
85.8740283375211
85.2754289723234
84.6932180634232
84.0598555563111
83.6346115626182
83.3774445092496
83.2529782046526
82.9047343438001
82.2751836748624
81.4971126483953
80.6344994127713
79.6833918865001
78.766612857918
77.8368327676296
76.8252744855791
75.6906957849448
74.5999128046772
73.7338785635744
73.1581968759119
72.8945948773372
72.8948084358777
72.5632185163108
72.0993115364737
71.5665948767728
71.0236138050773
70.7752172437423
70.80002712416
70.822340131012
71.2752346524432
72.4305780728667
73.243324266973
73.7041671473887
74.1223467675178
74.5629462654742
75.1230017278771
75.925640576087
76.4559811446388
76.6732879039254
76.8551226007047
76.943461200586
77.1233608139272
77.483678558111
77.9755212660807
78.5073170708762
78.880071055474
78.4671693834041
76.0706551098256
71.0517195467436
64.2877178330227
56.9386792218736
50.1619364582089
45.8428029923189
46.8337865712026
53.2554457971837
60.5551244284645
64.8794277647233
66.5984796066473
66.917713300467
66.5606026664973
65.9378648017986
65.3607710380119
65.0349521375238
65.1160985233582
65.6368046308147
66.5714290726626
67.8046812096699
69.2468843579754
70.7075269493721
72.0244946336158
73.3214119830101
74.7639392347641
76.3521070886667
77.9855095389525
79.4575031496502
80.5527274208401
81.1523011310178
81.2663886243116
80.9329242070487
80.2050822295551
79.138905414617
77.7849363578066
76.3054637376572
75.0507880236545
74.4684806793233
74.7213031937508
75.4745615610177
76.2721955486562
76.7691166207066
76.7786487616124
76.2664341798239
75.2866391107482
73.9999800334039
72.6693084157755
71.5042497424756
70.6548665054738
70.1662637711657
69.9161698873958
69.6706548178286
69.2138453684636
68.4549817974716
67.3779157520728
65.909852259333
64.0991360804394
62.131152379313
60.1745466997518
58.356817507536
56.8259667645215
55.5548884824281
54.4511599794647
53.4954150322149
52.7401851739936
52.2687252839694
52.1957559088155
52.4544041948994
52.8702822365065
53.2660619629013
53.6661853216663
54.2151239807771
54.906271173574
55.6675250967532
56.6437225331636
57.9016584221387
59.1258179732647
59.8180948376957
59.9597324272474
59.9352228905025
60.1139256380299
60.655303278614
61.6569336554172
63.1215116745065
64.9684921686315
67.040519300395
69.1189403518265
71.1039156054007
73.1146147156507
75.2328023477915
77.2568066862257
78.8817036171079
79.9078582119643
80.3417421510253
80.4175186588196
80.5224814887061
80.8854415358319
81.2934735828349
81.450476384845
81.243266225784
80.7916877818886
80.371730192283
80.1570448471478
80.1559446412731
80.1501740196264
79.8401592971976
79.2065119449811
78.4669936670206
77.8164807361321
77.184306646943
76.2914842570666
74.9479270369491
73.2332364561038
71.299098077763
69.2841352556863
67.2487776533823
65.0921191645507
62.7750640490224
60.4171446212671
58.0777634302897
55.9524032518714
54.2794192637587
53.179044264364
52.7563289561881
52.9812314276183
53.800854180122
55.4319347853536
57.7494673097079
60.2846682990035
62.7895131794641
65.1416954095853
67.160652611367
68.7583150734291
69.9560844777437
70.7469847163443
71.2065722093712
71.4444410917169
71.6302262978793
72.0229967190069
72.7577669179326
73.5613673027635
73.5888459036643
72.5345299249056
70.8375284708321
68.8564530807004
66.8411387018939
65.3246405090169
64.5461689015144
64.3435929210217
64.7705009762417
65.4796832655602
65.6839647176347
65.2400008543544
64.659626256047
64.076441721864
63.4733852671072
63.1409666722333
62.7633142567617
61.9919333004925
61.0275339412498
60.2376231193926
59.7546365909172
59.2646755150363
58.8341619559035
58.530830891454
58.0640952426442
57.6043875633341
57.3446727503039
57.1384644584888
57.1713765730078
57.1421696209879
56.9950001857236
56.8821112614753
56.061093387563
54.7265922133736
