900
3999.43349933624
648.556783676147
1
128
8
98.9500585368266
98.962923657252
98.9490469378036
98.9568109227986
98.9718507916522
98.9728260956572
98.9976292179468
98.9980711261669
98.9906954935806
98.9848003836817
98.9776170278011
98.9945923182607
99.0114774575565
99.0395413667111
99.0430306206013
99.0053922504535
99.0043873543851
99.0529721253484
99.0866786075035
99.0795470535032
99.1167923126333
99.1615945810181
99.1195915142812
99.0794156370295
99.168812409721
99.382955459915
99.3929727655999
99.1914538871925
99.1485266319726
99.2269167863591
99.296080216165
99.2763955060384
99.217086938081
99.2466378970459
99.3310966968673
99.370499200108
99.3970005723103
99.3486767718404
99.4856007537996
99.6064044465575
99.2806407727574
99.2247308529386
99.4193501063994
99.5068151922112
99.2773309778747
99.143896048844
99.2577822951675
99.4938721302191
99.5138884604903
99.2825504636141
99.1993649574235
99.3073754742477
99.3762907925057
99.3549984797658
99.2211052822242
99.0480100959638
99.0137122226915
99.1368839468633
99.1975758502205
99.1300196785069
99.0843291105536
99.1228104820789
99.1876384198541
99.1727641474434
99.1823073458349
99.3974821870888
99.735891522208
99.8493353178676
99.5237269419242
99.2819331901833
99.448764205876
99.5023320340617
99.1851785261453
99.0675526468273
98.9671013508536
98.8347368309541
98.8987304149613
98.9523570253489
98.618352186848
98.3095596933726
98.0760413772612
97.8531425937842
97.823697769726
97.786146860964
97.3336033876417
97.0813617305713
97.0853595538398
96.8197128265741
96.0691278367175
95.2351451683662
94.6100714458757
94.0655994770667
93.5328295232892
93.1576135514655
92.4463474030044
91.6223778156172
91.0771692948748
90.5429974985578
90.1467737318047
89.7269370420346
89.0229736118159
88.481533355578
88.0231445370966
87.5846845623008
87.2250529211799
86.7285507312971
86.1548884365572
85.6867490472745
85.3408788919541
84.8831379783467
84.354169817814
83.8987392996196
83.4119428746599
82.9398590745302
82.5688510036509
82.2458992518457
81.9134716273107
81.404908892784
80.8127110905908
80.4103012110783
80.1217632386121
79.7075871426731
79.2283671979027
78.8088651157978
78.3924718472153
77.9920603699759
77.5860585880523
77.1686730885074
76.8448347357122
76.4699541492598
76.022776049294
75.6759153528518
75.3418754956661
74.8903657933302
74.4126591991825
73.9593608167446
73.6103623655932
73.3811126470558
73.0471217274567
72.6369707041285
72.3136299627634
72.0657988987471
71.6536474610161
71.1549321497375
70.7787650171856
70.5037848235243
70.2744011696785
69.9559252389968
69.6280992279661
69.4620351361939
69.2865604889148
68.989592535973
68.6435697487409
68.3553167501535
68.2022781449713
68.093510306475
67.9337851741798
67.7955440080483
67.6641981457272
67.5992091513483
67.4872708560166
67.2661536109699
67.1382958837995
67.0768113220591
67.0494089758961
67.1348792374326
67.1844082698207
67.2439531134685
67.3514031312823
67.3969164880362
67.393616262022
67.4502262401842
67.5851187712607
67.7402811665861
67.8117588033612
67.9349192038632
68.1282031389889
68.2373029164225
68.3139848265471
68.4543363557703
68.6540988788972
68.8235963130405
68.9009920800758
68.9958228191769
69.0315471239098
69.1592934813815
69.373995292676
69.5005052009158
69.5245598176401
69.6302639813635
69.8592449813667
70.0162771523859
70.0315909543827
70.0311738155877
70.0953119022896
70.2996367343287
70.5188170011726
70.6512575378722
70.6528452230805
70.6952782252057
70.8718719843939
71.0367579997336
71.2366776090109
71.4233629753978
71.5059253929531
71.7063212427295
71.9486106377775
72.1235878182501
72.3000081438112
72.5184713099397
72.7698524083995
73.051267257273
73.3221969759365
73.5840159705722
73.8798237191225
74.2258910548115
74.4928208607099
74.7494388489427
75.0672028824646
75.4327393132773
75.7868309633517
76.0384722799006
76.324323462191
76.6940929665683
77.0569259036355
77.3678727870784
77.6692218989019
78.0279769310232
78.4154832106992
78.7100523088559
78.9798795146398
79.3281925282087
79.6884728740106
80.0101392550577
80.2772532660314
80.5697519875315
80.9414731148814
81.3225763916376
81.6224975567608
81.9390052820058
82.2693894366601
82.5748454749102
82.8548506602521
83.1213103585203
83.399357748531
83.7129813253523
83.9998285551716
84.3160405550687
84.6393977105584
84.8820775509383
85.1075569667916
85.3915696517759
85.6644908802749
85.9148503083381
86.1460829428756
86.3871188981636
86.6071559870681
86.7540686324567
86.9410614107638
87.1895383821089
87.4143001104157
87.5787403467739
87.7537198480938
87.9426864806656
88.1053231304622
88.2770588845667
88.4493715290588
88.5646401163499
88.649287806099
88.7652086863717
88.8043877916597
88.7309354241487
88.6645459708652
88.6203036695275
88.5810358687425
88.5466251170709
88.4850186253916
88.422904541937
88.3764849692904
88.3272660175042
88.3387632463957
88.4100710312814
88.4097252776869
88.2967306655375
88.0625045319035
87.7842421017063
87.508018178612
87.2267419265743
86.9900447058152
86.8190852974242
86.8480321716331
87.1240374412814
87.4474078291586
87.6178304149182
87.761766450548
87.9444310732765
88.1716845877598
88.4598735629933
88.7410731525261
88.9658680267729
89.1813602258456
89.4141334250866
89.6525527760316
89.9667985192155
90.303289366563
90.5454151439012
90.7238411925518
90.7889389351033
90.8925992063813
91.2466469508154
91.6727054728777
92.0424729873655
92.3645318416995
92.5837099594709
92.7136095105328
92.8008578988333
92.9086728277376
93.0298333078917
93.1123633109411
93.2437967427479
93.3892943973302
93.4491697642693
93.5305624146551
93.6703837892043
93.8172635551119
93.968555071161
94.0804855789985
94.1075077407302
94.1715623384349
94.3062501485574
94.3982420880608
94.4516047579153
94.490659007723
94.5197218228215
94.5688020473193
94.6318993489018
94.7139351776884
94.7465660615272
94.7337856106534
94.7459650555415
94.7724989695677
94.777527224792
94.8606545229141
94.9725183889008
95.0184865304956
95.0566208563246
95.1165996616594
95.1836914472835
95.2423643306987
95.310017785301
95.3841600342232
95.4250030050421
95.4618365379531
95.5108692263594
95.6210151745857
95.7435475360652
95.7962601119405
95.7995025976132
95.8559687240818
95.9305287977254
95.9892165051931
96.0308848813294
96.0987240688774
96.1697274393513
96.2540509239937
96.3256559859001
96.4005150927636
96.4828627497697
96.5655234019626
96.6584890190632
96.7098904560092
96.7383351331224
96.8370947527582
96.9310553437057
96.9708143325573
96.9554825083342
97.0109880842966
97.093684995028
97.1605989746894
97.2023654410256
97.2086225473115
97.2416098647169
97.2788548059685
97.2267297718554
97.1747211297094
97.1527703500716
97.16072537033
97.1212360536076
97.0992403454925
97.1130029934691
97.1447304209185
97.1684942901473
97.2708376640989
97.4207324474999
97.4039323442157
97.3203702543261
97.4338072745866
97.5426873714609
97.5383767669378
97.5183152408602
97.545329027419
97.5568310342737
97.6185694883008
97.644892033011
97.6164129922485
97.5984431220921
97.6522985925685
97.7159569351534
97.7653551617267
97.7720861115603
97.7241388502176
97.7306581402435
97.7748139070794
97.8057517461325
97.8047979433849
97.7519843238743
97.7327622166432
97.7615511337611
97.8136118798589
97.8432148522657
97.8309029122445
97.8009667309268
97.7558983528843
97.7581194946561
97.8413242901614
97.8408282321709
97.7777129220649
97.7593950720169
97.7629634739325
97.7900953524195
97.7893152575252
97.7533800271773
97.7577164663324
97.7688301085747
97.7863942168921
97.8478983030968
97.9941520672659
98.1480617510694
98.1869631524342
98.0905805970338
97.9677551707539
97.8540386037666
97.8219831929071
97.8665929165773
97.9241011739683
97.9261199488796
97.887365778295
97.8384657646503
97.8101885388717
97.7886090869065
97.8097383362823
97.86609931443
97.9180693113671
97.8756234515052
97.8606682003227
97.9164442095425
97.9466206261412
97.9197113769569
97.9534484034795
98.0304574040679
98.1031631774747
98.2010316358701
98.2855084991421
98.291498227865
98.3756556451642
98.4218386801561
98.3223800128387
98.391026401426
98.6522564112164
98.6963765763064
98.6652186356488
98.6211817138147
98.5227686284709
98.603469238038
98.7914916972798
98.7999643164254
98.7072388298979
98.6761312164174
98.7286157716792
98.8250116082589
98.8853675162677
99.0148936553512
99.0992908905416
98.9630674591128
98.9405607563027
99.1536980841103
99.4332958642616
99.4915442496821
99.4784271652327
99.6685264780044
99.8901571189581
99.888032104983
99.9911238168813
100.246871496954
100.070156860414
99.351919046384
98.7455863580283
98.6100201046821
98.6139533153868
98.4545103013205
98.2094558673073
97.9534048221408
97.8038120792064
97.7611655334567
97.6934900466628
97.6324259412925
97.7158963623863
97.7941235583597
97.826661351315
97.9085636877743
97.9285234441739
97.7856461887838
97.6918960898647
97.8806273506742
97.9853561175543
97.9933152482999
98.1447889789033
98.2735945226995
98.3532119983788
98.4630566566436
98.5379748500741
98.4434099074353
98.4210684732287
98.9565042692114
99.382819179782
99.2896806184492
99.3936613127686
99.549664172826
99.5447599679799
99.7096984631448
99.7013588732909
99.4623352307187
99.421110691507
99.677790153878
99.535613206401
99.2872014274938
99.182517962721
99.2599790694409
99.3594442307462
99.2578604509281
99.2365008468546
99.7039974071903
99.9086857846713
99.7526009981903
99.3224323736248
99.0108829061405
98.8904321808134
98.8359325712657
98.867082211835
98.7589563342517
98.659521688544
98.7137943773474
98.5660943261278
98.4487451386866
98.4067839937198
98.4495706275812
98.4442515114073
98.4805845843424
98.491732220429
98.434689654607
98.4281289102964
98.4526361238091
98.3386138689867
98.2849950257676
98.2823440910072
98.3380381425867
98.3608332471215
98.345853291321
98.2899562674717
98.258752125373
98.2372291453387
98.2457482507435
98.1554766554114
98.1588221488554
98.1128344134092
98.1098607100924
98.1361102631796
98.2171882701629
98.1540727934926
97.9901713606794
97.9268527949417
97.9953556125866
97.9874120252025
97.9268116103296
97.79742321782
97.7383924110746
97.6939183679986
97.6503602835647
97.5819271693781
97.5355714666712
97.4306385416858
97.3494879851579
97.1756261170022
96.9789106953594
96.7480414148661
96.4965094771758
96.1823358291966
95.8315090661228
95.179388530891
94.4977662925104
93.6327207260381
92.4943039039657
91.497562180063
90.8850741689114
90.4610188803761
90.2163202342733
90.0391721908462
90.0049490802905
90.220116483583
90.6414374158939
90.9532394532845
91.2764540665806
91.5397929978707
91.7715730946965
91.735896365316
91.6225908490234
91.3525108153583
90.839777768241
89.6866989070765
88.425960602056
87.052252013484
84.3911582623492
80.5558203328547
77.4822589998969
73.7268375546033
69.2860859758658
65.1773363953361
60.849393016243
56.9682113751006
53.4665503290076
49.4904499607179
47.0270044929373
44.5852500881915
42.7387024249765
41.4884622364897
41.5234550970707
42.056679421773
44.0778132274284
47.034452910402
49.9566657661619
53.2026353092434
55.0712647202171
56.7454074838168
58.1440035130633
58.9836220726163
59.3545591714161
59.833162806379
60.560139138738
61.5822427549648
62.2420725189705
63.2098412225792
64.1428237252594
64.7519091912825
65.3167649509185
65.1671881676575
67.4232607758632
70.0793868740485
71.2232892316387
72.3990910595054
73.5878330464364
77.0672261062934
78.8123003983767
79.9632280570518
81.0798201907451
82.0236774483749
83.1923485231332
84.1893844510415
84.5054019497399
84.5826447802895
85.860583343227
86.4220593175933
86.5119113737596
86.8805342786484
86.9698435022294
87.1332178142293
87.0718728914024
86.8291855569044
86.4761245545635
86.0211304193175
85.4187636063936
84.6346114587383
83.7937847062143
82.8968832377822
82.3941148933395
82.0408888462426
81.6567910028006
80.9933469927441
79.8982536143051
78.4813828577479
77.155873645861
75.7865367210742
74.516818762701
73.1064569207062
71.5419924733144
70.0380296125077
68.7366078469388
67.9023482583276
67.4618797760114
67.1399361463348
66.8988929437625
66.154594069121
65.0438415454869
63.9448432817989
63.062946603814
62.6406394696655
62.70019325135
62.7516316156821
63.0825426362746
64.012992881808
64.6340217333128
64.8629636135344
65.1249024632966
65.596515453817
66.3693800520962
67.6213019523623
68.6160524924234
69.0371255552765
69.2365125604674
69.2603600814284
69.4716037552545
70.2650011583605
71.3882468264969
72.4016814758929
73.1400782672808
72.7703032827722
69.6289816166056
62.9833924754677
54.1996567311073
44.9220158596229
36.6017445910773
31.1257712112439
31.9697863618669
39.8054049723988
49.0576764102802
54.5697791818723
56.8077019962558
57.3322579757689
57.0155953365025
56.3465630663206
55.7111689805986
55.3126087462621
55.3054211040166
55.7400076187798
56.5933076665681
57.6957681969643
59.0243476478177
60.6204587391335
62.2513684328126
63.7393067312776
65.3016920087761
67.0574608702618
68.9954114824208
70.9061218430145
72.476011664918
73.4705934686129
73.8953749595391
73.8021587046055
73.1994031016801
72.0967878443394
70.5960669288076
68.938562638886
67.5565892376629
66.9331197573896
67.3105011054632
68.4374249134821
69.7585079755039
70.7508533739255
71.0182602367119
70.3959875822441
69.0886719517578
67.4437371661843
65.797783741946
64.3413334177526
63.1701510473295
62.353487209117
61.8651625221495
61.4471547435737
60.8250829610489
59.8923137057882
58.6940087163096
57.1916633781338
55.4001663416304
53.4032463800024
51.3149899270889
49.2267205721449
47.2565368512916
45.5171403262081
44.0848936037841
42.8739419945792
41.8899665880272
41.249904978484
41.0911920157367
41.3709123052657
41.9177153813746
42.4628643275204
42.9408447805175
43.3541792152514
43.6450710353518
43.8435443123079
44.3153099495543
45.3347298554356
46.5899917175845
47.3509238648041
47.4294948146682
47.1813352891117
47.0229568494642
47.2265561909815
48.0725423900886
49.679075515002
51.9822169162255
54.7679913942216
57.7193939001385
60.5776287059924
63.4218545238243
66.3744239798119
69.2605761554423
71.6530107395181
73.1711244618529
73.7582995856754
73.7696403738624
73.7370721251256
74.0143986424659
74.4488194902988
74.6110789052699
74.2708817790863
73.6963714046405
73.2880590571038
73.2205783216325
73.3676573385045
73.3281366481924
72.7921123836046
71.8392942796308
70.7765700403967
69.8031892460878
68.8033906710406
67.4820171280505
65.6612716607831
63.4637670665245
61.0462233714146
58.4940534128819
55.8419999372157
53.1299335193016
50.3396814643609
47.5373703002467
44.9033390742854
42.6292903225564
40.9020284299787
39.8693213975003
39.516025240988
39.9625046839254
41.2665846939622
43.6092204884159
46.8400353469423
50.1951491617769
53.222269540362
55.893096255112
58.2044880496179
60.1272949237974
61.5975031865713
62.5600596965902
63.0744662635963
63.4138086518963
63.641145643506
63.6720628613954
63.7420988144011
63.8581681578107
63.0836283661544
61.485359948706
59.9096270225937
58.4266575907673
56.825411410268
55.4411427775314
54.6711863213993
54.6671705007629
55.4776148657987
56.4360604351139
56.6553775008802
56.165842994057
55.4970229979497
54.9340216113034
54.4586682148348
53.9109947593469
53.1982634849202
52.5010288469561
51.8820845233188
51.0480866062297
50.2584360438159
49.816432550221
49.4474381606729
49.098926046589
48.7858127701253
48.3289573348174
47.9069927090351
47.4215724393651
47.2477858824323
47.1074840904126
46.6433942048041
46.2337585196007
45.6123120328952
44.7935855889325
