900
3999.43349933624
648.556783676147
1
128
8
97.6452698793078
97.6732118653118
97.6770261291615
97.672420469098
97.7075726017807
97.7152966060011
97.6504067610944
97.6502618620399
97.751231624971
97.7616839216464
97.7123407453345
97.7318027830503
97.7759093457423
97.7961409857908
97.792227931171
97.7839249375029
97.7820352313058
97.7742475859632
97.8030600252755
97.8874860445987
97.9397255021482
97.9557593780626
97.8765672953238
97.7925948188795
97.8305772522697
98.0533282909125
98.1384447908248
97.8904892053969
97.8569328639737
98.0017293472537
98.0911750532775
98.1085355443542
98.0158098711683
97.943655213532
98.0208516823716
98.1439112601765
98.1688592246696
98.1189570292937
98.187817741989
98.3370920050294
98.1368384927422
98.0402037853338
98.2130939316224
98.3916159716316
98.2571889505507
98.0493647575315
98.0667290872807
98.2479837129285
98.3879116866599
98.209558711745
97.9930782006695
98.0411561301446
98.1864780721008
98.2198933927593
98.1325479870327
98.0097655470179
97.9785616409203
97.996121401228
98.0533442762015
98.0700689947563
98.0576934223251
98.1686633673795
98.2393641712512
98.1510197625845
98.1191678059259
98.2709504665854
98.6173106052143
98.729748463866
98.4956133423898
98.3557997305999
98.4640511922298
98.5075460969231
98.2134344025419
98.0796112648529
98.0553250978229
98.0228342530199
98.0870249126683
98.1248081939564
97.8791848150076
97.6544151013206
97.5299611094979
97.4411124051736
97.5005736942858
97.4958867170624
97.1189489876333
96.8549841152458
96.7855152096838
96.616433730338
96.1048787771363
95.4407585691733
94.9289986690454
94.5722209971802
94.2983681760762
94.0313329913471
93.5590486324757
93.0047543654225
92.5942452494838
92.2197384893247
91.9619781850035
91.7777123122283
91.3585034160075
90.9441333023962
90.6628706460068
90.4360552860643
90.0749745045926
89.6008796735656
89.2278578847902
88.8516082901936
88.5241605927322
88.3108356207431
87.9856819871218
87.4628551765254
87.0117975191208
86.6622018684491
86.3923941494886
86.1904228552599
85.8970369189205
85.436600062403
85.0819508271536
84.7786976380711
84.392864700584
84.0345565208661
83.6882479159099
83.4091264000021
83.1612770163704
82.8015106336827
82.4676072288185
82.1985050174558
81.7917105497184
81.367672483995
81.1039562636433
80.8201443220899
80.5107961936615
80.3345572802347
80.0563139851103
79.7034601256559
79.4053410691685
79.005946814803
78.6526663321241
78.4445351286867
78.2296802489726
78.0074697443113
77.6679738928538
77.3140644325982
77.0696079629632
76.880182118972
76.7078243091053
76.4703105671652
76.2572790785161
76.1175273232994
75.9228676455983
75.6705866860874
75.4045081441085
75.2373429502472
75.1691899783981
75.0779136352602
74.9215967819203
74.7695160423855
74.6017336599598
74.543874535829
74.5239578926353
74.4526541010147
74.4170681919902
74.288388785644
74.2671590229489
74.400040472897
74.396283821113
74.3534918538812
74.4456942226882
74.53480754467
74.5180482895728
74.5630568843022
74.6022040533456
74.6628867948643
74.7379615372403
74.859070706457
75.0173255806434
75.1219905779345
75.1994434909923
75.2691824264207
75.3619362745915
75.4969132207137
75.5761950198323
75.6512117768494
75.6697503551624
75.7388735829485
75.9466464073814
76.0757398778302
76.0668113677989
76.183501642617
76.332898263522
76.3822633451468
76.4258560341239
76.4883713837211
76.5344912673446
76.7297784429848
76.9369091414943
76.9878194953742
76.9946942927362
77.1153753824403
77.2787901077859
77.4164653264351
77.6196986368754
77.794726609858
77.8455716212198
78.0124616673705
78.2803940022338
78.4731919459337
78.5937770533131
78.7581638850253
78.9774868311866
79.2303503256764
79.4942631273445
79.7325698198597
79.89136578091
80.0515592788728
80.2998661212357
80.5896212232547
80.8453481082747
81.0881027558556
81.3019782791198
81.5358841553924
81.8422822232896
82.0982514942809
82.2997674372888
82.5223101919965
82.7548240896237
83.0375410111722
83.3573518979573
83.5773467204266
83.8055177548876
84.0998703336193
84.3099667475947
84.4909517101097
84.6911242678714
84.9182434160558
85.1688319998535
85.4136421626567
85.6931104878493
85.9418357514153
86.0859077876678
86.2667211900519
86.486157118834
86.6837696961099
86.8590659198853
87.037049225606
87.2403458940705
87.4429825862508
87.5844745611502
87.7794142568832
88.0086664137818
88.1653348111759
88.3235869777521
88.5131567489734
88.6735467377716
88.7928707284312
88.9253158248254
89.0825815797416
89.1527972361332
89.2803828709227
89.4586366080808
89.5455470915255
89.6441571847995
89.7503246736212
89.8437405086896
89.9542720140425
90.0155979739174
90.0484453845808
90.088710321556
90.1057847819812
90.0358826211354
89.9405767679141
89.8417913037425
89.6903106227419
89.5579971597281
89.4335412134131
89.247483398772
89.0987629937365
89.0479518247416
89.0204416629173
88.9609773790753
88.9315275256518
88.9012032584824
88.7521624709425
88.4674223196318
88.1283217419844
87.8204969176602
87.5639757620052
87.3143226792916
87.1775078247941
87.2526177322627
87.5128870292313
87.8184927138383
88.0461712177034
88.2200026975578
88.3972182930301
88.6426097604069
88.924859218327
89.1420746676958
89.3488313641988
89.5403624751444
89.6944757391644
89.910878641858
90.1773735314424
90.4248831296821
90.6382198735352
90.7921221305312
90.8384074954622
90.9966513185233
91.4503409199424
91.9007344574824
92.2151571302622
92.4834895172997
92.6570980666318
92.7541831047812
92.874569664714
93.0080901633825
93.123567635998
93.2106330545027
93.3112093289886
93.3875359944887
93.4270257762897
93.5635583577217
93.7095897345782
93.7826665487075
93.881609955756
93.9471631082335
93.956978020588
94.016567990966
94.1541612489193
94.2087809970954
94.2234641801335
94.2588675416831
94.289479317424
94.3284315649904
94.3830928597033
94.4315339367531
94.4642573347396
94.495271879363
94.5180889570642
94.5457685317315
94.5741480802515
94.6456031928815
94.7076326062905
94.7260597216507
94.762665115068
94.8225506338373
94.8708376738821
94.8991430530053
94.97373835132
95.0761696911006
95.1006867053046
95.119175215451
95.1504685544352
95.217359353322
95.3133277080478
95.3487580008712
95.364656954526
95.410852268342
95.4550096565048
95.4842442360205
95.5335256312545
95.6203270155331
95.6497087298215
95.66006687453
95.7401613735408
95.8527403485649
95.9048828667269
95.9358840202328
96.0042191193849
96.0810993496193
96.1371729000761
96.1905205646249
96.2616985865618
96.3134440413509
96.3968144095279
96.4574637562655
96.4574820468753
96.5136507527298
96.5331231946644
96.5644692755796
96.6574669214169
96.7213868464654
96.6446383533709
96.5659441762475
96.5913569951057
96.5787416763544
96.4836408733869
96.4626067952631
96.5132020003342
96.5674724729912
96.5895415508255
96.6351446971593
96.7679858146308
96.8576343169619
96.8487334588493
96.871987637582
96.9468531608536
96.9689647600653
96.9524384707888
96.9693179433042
96.9664364450589
97.0045328798182
97.0677380699975
97.045099458351
97.0564849178233
97.1087383987778
97.1350636675953
97.195988206994
97.1896554360701
97.1500909554337
97.1690048470547
97.2091694635786
97.2297382242163
97.2384902797678
97.2202894448936
97.2051016877438
97.1793150803104
97.2155107791375
97.2386067252696
97.2131175211303
97.2408507884677
97.289664227629
97.2911855273043
97.2916378253462
97.2835663639415
97.2680699523088
97.2824052349386
97.3006666717357
97.2640305127623
97.2462529554713
97.2728667989122
97.3328221306821
97.3686728803003
97.3673893523435
97.3895669998039
97.4921196859753
97.5240587871438
97.3991721802841
97.3544131001946
97.30424778715
97.1709529199063
97.2244046205975
97.3505172049282
97.3732347150846
97.3195590176402
97.3537651368376
97.3765940571815
97.3228522425631
97.2304631422587
97.2604130814256
97.3563372570375
97.3854576944476
97.429137336458
97.4585205455175
97.4397224646695
97.4621566536607
97.4679472857849
97.504785913528
97.5655665658337
97.6011119434331
97.6743047364338
97.8088350675955
97.8599945644582
97.8712338466143
98.0299419850681
98.1850433112289
98.1544447852175
98.0793333356958
98.0534393629195
98.1491263366176
98.251569461486
98.1987926035186
98.1484815532261
98.3059584431936
98.4531495556731
98.466715879166
98.5075695264941
98.5668429948199
98.5748971658203
98.5036860002409
98.4326142688114
98.5713915329392
98.7700702278709
98.8131126307225
98.8105145900293
98.9907911270496
99.0429731470803
99.0986976726965
99.3969095385358
99.4381648805576
99.2891010951462
99.4653550199162
99.9976424330988
99.9822563777544
99.1306316487263
98.4725212952362
98.3348673821187
98.3688598248924
98.3536526987437
98.2684269305403
97.9618501262658
97.7323681675739
97.6539261735111
97.6675151290782
97.769700557638
97.800139292838
97.7722293392212
97.7303170948543
97.742540306785
97.7647315589105
97.741599687084
97.7519061896976
97.7405089309478
97.7462156500491
97.8921703498734
97.9939847141429
98.0865917897853
98.2551194621576
98.3213838202725
98.2988142824383
98.2479113227073
98.3355573426178
98.6989291971534
99.021628099615
99.0418559844669
99.0772171962452
99.3681650185419
99.4645877094116
99.324673001226
99.1414903308545
99.1884219110472
99.1762104197533
99.069742572174
99.055422538069
99.0540925529233
98.8262821677403
98.740716878211
98.8788853457631
98.9098108513634
98.8981357924797
99.1939324185305
99.4121583634058
99.2868402842428
99.0580672236733
99.1109400521093
98.917816896777
98.6798025199947
98.567782906914
98.5932225522403
98.7034335943141
98.6545603772369
98.4596769089969
98.4749571519999
98.4117117470968
98.287737665337
98.2669283861443
98.4024430165767
98.3925388850971
98.305536525737
98.2478260571657
98.2231435621842
98.239722566737
98.2834319782668
98.1732681794037
98.1586556082059
98.2195149952395
98.1824807803684
98.0856589502319
98.1196293267226
98.2712700490689
98.3441661399141
98.1450714422314
98.0446637922832
98.0635559931383
98.0926918665339
98.0422527810956
98.0655439874062
98.0789681307157
98.0026825346421
97.9020044114221
97.9010166061294
97.8976761275123
97.8651472597686
97.7622646335041
97.741353849327
97.7169377898742
97.6675881309861
97.5425532343005
97.476323209603
97.377318208233
97.3273718174126
97.2048273898425
96.9925266342581
96.7383994109584
96.4380912208973
96.082670490789
95.6428668864155
94.8147727038883
93.9271610985641
92.7377872185555
91.2235484038459
89.9625155724316
89.1165401093055
88.6183060433566
88.4388470687187
88.259806504387
88.1931744386603
88.5326258220211
89.2773738341325
89.9428652831148
90.5413936820292
91.0968642279465
91.8133740138251
92.0495261987966
92.0416107019235
91.8718397949163
91.4491103340897
90.4280058369072
89.1559948815549
87.6432917502144
84.7886699518194
81.2882986426074
78.471797235395
74.890784833584
70.7965740238283
67.1571833752533
63.1921271912928
59.7328083475239
56.3131172792886
52.6686651409712
50.8263401467108
49.1948881507957
47.8910963972906
46.6455931844904
47.0294519165107
47.9693265595634
49.8017385948374
52.2370418583728
54.3669534810238
56.7002919274179
58.3862690025169
60.2064083168006
61.9419042716492
63.0726280220651
63.550581629112
64.2321210760969
65.4670804254256
67.0361890236998
68.0818445810636
69.3444356208948
70.6848087818497
71.6949741390477
72.6431303306238
72.711236874492
74.5982189076867
76.9690461232696
77.8397623950657
78.6229566615266
79.26269110644
81.4709175067837
82.6774536448046
83.4402413739799
84.1374584493143
84.6955086225598
85.4794789939603
86.2708211092306
86.5761363048113
86.6167599408867
87.7403981454857
88.3608800814197
88.4867895940799
88.8521911832121
88.959945818439
89.1355368454589
89.0905177502243
88.818955247035
88.3618190787687
87.7807159775574
87.1725504986384
86.378800127388
85.5681782892085
84.7166345195037
84.3937128296703
84.1490431065284
83.8644547432087
83.4037477422855
82.5496160697216
81.4990921769664
80.6013222176827
79.6643835451634
78.8036672567271
77.8717716671847
76.9431149760853
75.9125329259489
74.8287476743673
74.0016743993664
73.426163884608
72.8165727080277
72.1403988638148
71.0542220055086
69.5734878329028
68.2982570479672
67.4409213510708
67.1504000914568
67.4586094184827
67.8470000897531
68.5882257842191
70.0492620603655
71.2131189919921
71.9602393881071
72.6173004291595
73.2794481860981
74.0047499623262
74.9771315729482
75.6078016822393
75.3979010916591
74.5443062562866
73.4584512931372
72.8563464177618
73.5319136853333
75.0488825429901
76.2761870401457
76.887777703628
76.2593894856307
73.1559624822621
67.1300104080344
59.3061932438633
51.0095096052833
43.6780905000142
39.3988769295173
41.1674448895142
48.5871885084485
56.4163896453095
60.7887527350555
62.4164975306283
62.6555589126899
62.2562642867165
61.6260800409224
61.0903710191027
60.8433436901576
61.0367828132608
61.6770987010635
62.6166632183678
63.435760976677
64.0450729760553
65.3544870240067
67.7258654372977
70.051254756278
72.0792738457328
74.0687736231074
76.0020457974001
77.6773080818124
78.8631985197825
79.4254202176666
79.4276217688998
78.9620110716516
78.0641129667584
76.7732741369665
75.2107948454552
73.6050711761373
72.3822943297292
71.971520941315
72.4481881239355
73.4300838311025
74.4006489442237
74.9795147526025
74.945387696586
74.2026076275084
72.9293488587044
71.4271356643362
69.9530909360524
68.7090218163834
67.8365056250534
67.3297198873269
67.0531173294971
66.7693144191619
66.2989209661223
65.4931794380333
64.2889979411741
62.7153920900468
60.8984211211735
58.9543887450314
57.0116972999915
55.1906579077206
53.5784671113298
52.1901465965418
51.0043503834987
49.9453965551879
49.0471986416382
48.4242265177813
48.1889629938306
48.2702483087967
48.5789832985725
48.9788970642352
49.4228856054636
49.9870260434573
50.6866535152676
51.419895968475
52.2916438282541
53.3615034252109
54.3429026239993
54.8138877350054
54.8030062067426
54.6264346062521
54.5979000182264
54.8731493750626
55.6052741976715
56.8663704124574
58.6161225783243
60.7135828032521
62.9656318462454
65.2240606562753
67.5644417175072
70.0431882897669
72.4955745728788
74.5427979685886
75.8794340003987
76.4925752353068
76.6804285791648
76.9223464079505
77.4424733788072
78.0120559030218
78.2559574412842
78.0993189409013
77.7106245670118
77.3326691044444
77.1916454935283
77.2723468193517
77.2638107891935
76.8108454711983
75.9921395556109
75.1353147081077
74.4234111209105
73.7078880267429
72.6401505310934
71.0360028230593
69.0324811941578
66.8317501199217
64.552210113897
62.193446155131
59.7457777921534
57.2203004810608
54.7168696701408
52.2774033216504
50.1319942149445
48.572500778032
47.4958113002291
46.8428942784831
47.1715393929031
48.4747891752738
50.4510131821314
53.0418928495565
55.9063555352935
58.6895259668699
61.3032435075336
63.7298094031943
65.8565209455831
67.5388897684932
68.7012120437533
69.3839131133936
69.6107343297885
69.2250846789089
67.6270540203033
64.2981215626623
60.3764737884941
58.4556824371648
58.9654547556197
60.7295374741844
62.3167429429998
62.71678853366
62.2241932012065
62.0258269820441
62.5686787208098
63.7582495537337
64.8697886283442
65.1199144919397
64.7853753054409
64.3333419009544
63.7669813224465
63.2250049061349
62.6862256408696
61.9880318680855
61.2947761609291
60.6473668031294
59.8596896069484
59.0782072726677
58.6715352202967
58.3491213236903
58.1473941550755
58.0619429416434
57.5953750809097
57.1086761846899
57.1581469318177
57.3642463434044
57.06853132347
56.8904108658419
56.8534585111659
56.7513805634671
56.339970889149
