900
3999.43349933624
648.556783676147
1
128
8
99.3847680452012
99.3969584876995
99.4374869121528
99.4509439356291
99.4572738293105
99.4408669435137
99.4119446957947
99.4168960746336
99.3936647345754
99.4229882704258
99.4706166189356
99.4520418257445
99.4740564228507
99.533614055438
99.531746931025
99.5444781732191
99.5273833869274
99.5392406753918
99.5936907168921
99.6002982748574
99.6190528378004
99.572024050261
99.4695299484537
99.4283508729251
99.5438943159289
99.8791282893027
100.05592694689
99.7464964876472
99.5968174037368
99.7140262197994
99.7703482943274
99.700701268445
99.6491968411384
99.7172792792705
99.8667710254615
99.866633292295
99.718181174572
99.690156217953
99.9744702691895
100.144741707154
99.6649653928313
99.6062061763474
99.8485879132518
99.9815681344919
99.8039579149775
99.66205625501
99.7054798452652
99.8892662447427
99.9354323308925
99.6873037899272
99.5620392608344
99.6863476823943
99.7887374297092
99.7470559873274
99.593205765113
99.4228094041195
99.4161056721542
99.4760007446345
99.4798431500813
99.3936752416179
99.3557927282641
99.4944035108308
99.5311648666723
99.4694153500332
99.5165045589769
99.6822442195155
100.064240293083
100.253583787774
99.8554871771851
99.5799394157147
99.7424978942873
99.6747420829868
99.2280924931036
99.1006644260512
98.9748499522017
98.7142405746069
98.451510756789
97.8640507322982
96.8686938627017
95.6478685851095
93.9706320744754
92.8646357879381
92.8622812784289
93.7071095107873
94.3480851847535
94.5955338689609
94.864818148866
94.823834999721
93.9919549412414
93.0665738659588
92.4836605499538
91.8721246513198
91.2101337124653
90.7994130270377
90.2767959625978
89.6585113096
89.26358041539
88.9152104087689
88.5944554489085
88.041864929629
87.0674510172066
86.2452247730971
85.9432735188501
86.1956343366468
86.2256415961296
85.8143090224059
85.3078270571263
84.9132970762667
84.5477490490946
84.2102657675006
84.0415996448978
83.6375369954092
82.9922466872521
82.5775673580455
82.2234750238726
81.8333349843663
81.645662738986
81.3097628647401
80.7465788539673
80.264136860466
79.9221451406899
79.5924693449556
79.1415837708939
78.5878386610887
78.1273673540297
77.7966535818406
77.48454506713
77.0533149579261
76.6064060468575
76.2534186082585
75.879975226795
75.4931646505445
75.1268523968692
74.7930600000676
74.4244121087256
73.9463806375497
73.4454828221405
73.0659489694965
72.8124185989267
72.4969458093203
72.0505058932612
71.7359917846103
71.418579522387
70.9486836366032
70.5929044751894
70.3172074579267
69.9593874044221
69.7024464165919
69.5208322456964
69.3407286415507
69.1745760830363
68.8163415960139
68.4043502040399
68.1624573778586
67.9651098350922
67.8759718962943
67.8756924249862
67.7029576632297
67.4327615336247
67.4337565606335
67.4060033095371
67.2503542721401
67.2191931239528
67.1182493595414
67.0357270940789
67.1347190029327
67.2085579045547
67.2668033973484
67.3751483717014
67.4548035762124
67.4812183711507
67.5847652531763
67.736350198544
67.8727423143789
67.9818480876794
68.1154799558226
68.2325096266389
68.3729134595474
68.5673050964612
68.7352079124985
68.8752953679036
69.0422958469526
69.1795136838891
69.2471153027938
69.2727623374148
69.4365424588355
69.6739178100541
69.8371635115934
69.8606220979033
69.9768952593546
70.2325967072608
70.370650838837
70.4100949958327
70.4895831424396
70.6030392190309
70.8815433373169
71.1555545735412
71.2507571151012
71.3154387771958
71.4918726520231
71.7239007034728
71.9160475969697
72.1000923184778
72.3192154520872
72.5110936129086
72.7416577222631
72.9864599197142
73.2928597882579
73.5603326160086
73.7655478360718
74.0228080701149
74.3284737443525
74.6356954573726
74.9607026292079
75.2546036238816
75.5938462335055
75.9130337350752
76.2308342462276
76.544973829749
76.8567142082213
77.2436770904894
77.5795516817393
77.9001068100348
78.253318964237
78.616725628694
78.9802769278089
79.26477830815
79.5884146437883
79.9998465881159
80.3557065096281
80.6937355072579
81.0657245150876
81.3815205085093
81.6843689104313
81.954560122994
82.2397609713677
82.5861723867185
82.9502056841617
83.2897702226879
83.6181507444377
83.8825634127508
84.145204863663
84.420857649716
84.6836703885741
84.9318965133434
85.1830650663379
85.4938353902437
85.837007338382
86.0634894799176
86.2104669764766
86.4838753667522
86.7850970627556
86.9964641112713
87.2234382729622
87.4571629023763
87.6651365465802
87.8716352814461
88.043087618915
88.1880915699283
88.4016551538731
88.5852928553636
88.6405483412569
88.7419698511698
88.8824806792567
88.9817326160174
89.1107249040994
89.2202695113462
89.3262557589577
89.4351216329891
89.508992241785
89.555073963454
89.522288212749
89.3510438464377
89.1142873598603
88.8599657908521
88.5387136133925
88.1270275821549
87.6354208271448
87.1515786781628
86.8109092285206
86.7335418462314
86.8380106196007
86.7996361198974
86.3937119202213
85.6454443242234
84.6917456705514
83.545054676081
82.2933167855783
81.2771782587632
80.7636188737488
81.0116107019134
82.1140409953452
83.510370927113
84.5543329507293
85.2549145978907
85.81480557269
86.3654129833077
86.8955366452738
87.3905135350704
87.8430497372637
88.1543491560938
88.2766301384062
88.4250681528392
88.6730917974283
88.7543346623855
88.6018405234195
88.1549221882178
87.3592278037492
87.0018453299943
87.9842567449764
89.6942766933256
91.0893448164119
91.9455345364413
92.3823046408143
92.6419569546172
92.9126581186394
93.1779264008429
93.3789161092039
93.5457503457826
93.7322953745695
93.8822853920234
93.9491488384408
94.1097029420463
94.2577748049453
94.3961837374414
94.576921248387
94.6538263994328
94.6824557533549
94.7971881781266
94.957328225411
95.0212166764111
95.0495195527017
95.0997186180037
95.1536409676695
95.195181137314
95.2490898877565
95.3445882812764
95.3611883589323
95.3863669391566
95.415621016731
95.4096151888577
95.4491991266913
95.5524399893642
95.6151868423181
95.6707015170782
95.7097878956602
95.7646959896457
95.8305475904529
95.913265716127
95.9675374642495
95.9994515722758
96.0389606536459
96.071362683777
96.1228727514638
96.1798743022402
96.24412118336
96.313611747587
96.3605358456229
96.4094526547157
96.4245815006586
96.4605189546907
96.5070115687088
96.5781015655795
96.6523410272843
96.6764560332147
96.7248569998267
96.8292582438645
96.8949106407003
96.9797088450075
97.0737871090113
97.152422814045
97.2242014966644
97.2974477632776
97.2923505742839
97.2986204650638
97.435511960117
97.6074866616016
97.6353615814715
97.5668726360406
97.6082795308513
97.6904965052745
97.7233132081897
97.7834793900431
97.7463719466412
97.6839253115384
97.667787104953
97.6701575172354
97.7049417277758
97.7418585989366
97.6579321897262
97.6422304855356
97.7092567984963
97.758285662243
97.7928724529427
97.8583269647925
97.928601008069
97.9575920277931
97.9363763691471
97.9765584422827
97.9859305942642
98.0168772564536
98.0168420455941
98.0216195886858
98.0649700082264
98.0878991449859
98.112414104787
98.1645067028262
98.1171351225421
98.1020038297946
98.1575367580006
98.1901585483038
98.2015062400771
98.2779925976471
98.2490571810366
98.12953172849
98.1305453349386
98.2214286691641
98.2021664344627
98.205753626053
98.2584598782462
98.252456022443
98.2274391476486
98.2505888562381
98.2300131027079
98.1940434370911
98.1891492448868
98.2038477165435
98.2571721363959
98.2550689867925
98.1913047487752
98.1706323466082
98.1399220859202
98.162078080681
98.2103740985999
98.2097168964584
98.2787743196671
98.4613758232946
98.5338454000409
98.536223898869
98.4891660745959
98.3538685298604
98.1991161834557
98.1052426597382
98.1466802370871
98.2948546501048
98.2996316838552
98.2011997332979
98.1373531779078
98.119699382945
98.0636776962858
98.0418217435889
98.0718068246715
98.1166039136344
98.1354690759122
98.1262753755055
98.1428471032724
98.156235593307
98.1433959910088
98.1824136699609
98.2072030061756
98.3127855558418
98.47246561385
98.5163180815639
98.4519361289283
98.4814777041224
98.6741487975005
98.8140172883183
98.8226679735611
98.8293441659017
98.761232951807
98.7940822801544
98.9683933267305
99.0301057608632
99.0173063446244
99.0652327761725
99.0716384456585
99.1767460697953
99.162966872914
99.0507338189088
99.208239550627
99.4401609429651
99.4643780636815
99.3525488274115
99.3427672441038
99.5693928335343
99.6300416786428
99.7713536034409
99.9793711135297
99.8344232712199
99.6385297633321
99.7520622960098
100.038349566833
100.412079614057
100.618403922844
100.535592815597
100.04803690126
99.3893145086303
98.9600615740898
98.7611538148128
98.6738950878478
98.5429555323673
98.2274007447984
98.005317389325
98.0081123507426
98.0550223565183
97.9763359540924
97.9422852089722
98.0188867274377
97.9663867294527
97.9244920822258
98.0668393048959
98.1325121500816
98.0266307430718
98.0301172450969
98.0834323992952
98.1530092990876
98.1787013722341
98.1500457405377
98.2460377532373
98.4101358948012
98.4998308622098
98.65913325174
98.7606621629277
98.8735445664417
99.12225513565
99.2086695196714
99.3143882197826
99.784340372521
99.7286785151363
99.3426219229145
99.5456791751721
99.8481961292141
99.6668542641375
99.3660336771493
99.2556790566896
99.2028638276365
98.8621298422203
98.9083231876938
99.1469136748902
99.0664846905545
99.1011770995478
99.4013156112138
99.5224864586706
99.5652809298535
99.5244542088076
99.3682382984326
98.8532386401243
98.7389655613546
98.7685140558792
98.7456152241916
98.8184090650264
98.6906448540713
98.2965823504699
98.3222318687118
98.4580339559283
98.4492983246848
98.4246223256465
98.3957914213804
98.1719614690908
98.1148268011135
98.1504587357743
98.1724121105026
98.1341697377869
98.099028961678
98.0649637386116
98.1527027841845
98.0977292437247
97.9939103087587
97.9657020004878
97.9937752150434
98.028059274182
98.04040588145
97.8779747136307
97.8392880083597
97.8237207565742
97.835007892877
97.8361169485868
97.8790157443788
97.7424308951533
97.5699878892687
97.5851320507506
97.7039273694008
97.5877881840613
97.4246849977677
97.3298494120741
97.3268667614521
97.2590955579226
97.1878816291262
97.1032001883928
97.037713987404
96.876400770267
96.7592604170302
96.5967028518643
96.4278911714348
96.1884521607153
95.9059491197929
95.5608940402325
95.2112585927606
94.4908141637507
93.6709970122055
92.6232558034048
91.1706769010878
89.8118458955663
88.8942985506678
88.1877630897025
87.8275402154691
87.6549347788456
87.6776220168699
88.092005896295
88.6664075749091
89.0549652655389
89.4659985077524
89.8640980297782
90.2613878233799
90.2142445264501
90.0776454070556
89.8370911612359
89.3451099046821
88.0329045199785
86.6363690236351
85.2222234014126
82.5495744282955
78.5842898928545
75.4857935291386
71.7823068281916
67.4497057671175
63.4021148203445
59.1292983098426
55.2450470213098
51.9167621487031
48.2958308304403
46.0326660598431
43.6988872432108
41.8061461399707
40.7056633432307
40.6416745854749
40.8147264726413
42.5952140124769
45.3790099399464
48.3301160591855
51.9156386958778
54.191138719289
56.4913755086076
58.5633494865081
59.9747484990129
60.8305177768526
61.7969109692339
62.9102778634322
64.1816386210247
64.8966330692669
65.8614134863662
66.7893621581417
67.2670070470161
67.615185823062
67.1837566526843
68.9743955287282
71.232239912603
71.9363542766309
72.6792032728998
73.5133126063789
76.624640678306
78.1155978490564
79.0901606156689
80.0653769744679
80.9246574701826
82.1110965702325
83.1191504486935
83.4012699304795
83.4811684466363
84.9555244540936
85.5723222918802
85.6406998167964
86.0598097944055
86.1867450872527
86.4297187449655
86.3624290492967
86.0161830286509
85.4185575793852
84.2723525059041
83.0715790503437
82.0628115702796
81.3124456546721
80.7726123484184
80.5451918854183
80.3009366078587
80.136130525664
79.6831501664586
78.868002833849
77.8536683942222
76.7520361075074
75.5670080024451
74.4326033485197
73.2098304648097
72.0681518176885
70.9165695083292
69.8181019971988
69.10338887515
68.7579395681441
68.5182440709701
68.3359848426884
67.6562320173785
66.6397144546202
65.6501518736851
64.8651418447186
64.6677298204749
65.0116455631308
65.2749584884144
65.8819455837656
67.2705612174541
68.3000827675156
68.873818268961
69.3669373631114
69.8891029291372
70.5992807486244
71.6800648847317
72.340192156469
72.298489717767
71.9358567009694
71.4283621943552
71.2442956528315
71.7809155107233
72.724536577447
73.612730910525
74.260518754679
73.8481630736781
70.8829739453337
64.7420765276812
56.6602554843394
48.0567195156554
40.1005996166005
34.3372060227346
33.8602028246256
39.9786943853238
48.5746447188469
54.5202034083789
57.4414057921386
58.5327656085197
58.6175905209895
58.2846361637473
57.9633613674295
57.8529288744131
58.1560317580054
58.8572424087428
59.8508658985364
61.0384278500628
62.437528878136
64.0680772376208
65.6660132999554
67.0207717130478
68.3285979444362
69.7971174131711
71.4452505219716
73.001476020991
74.1511261327255
74.6794761374619
74.6695279187079
74.2507416892795
73.3667661373094
72.0500612025509
70.4000307205625
68.6116518797416
67.1154179952921
66.3793191387566
66.5834925722988
67.4688980499687
68.5171241205264
69.2263247045564
69.2857229981962
68.5527982531345
67.1554917651119
65.3466762344779
63.2838827659499
61.0197893227063
58.7481220844613
56.9331862041038
55.8220542240059
55.0163908408983
54.1410244825961
53.1109424002513
51.958362018748
50.6373130855021
49.1160121547949
47.4031955563364
45.5679979599516
43.6513849824704
41.7668097801252
40.0088281763384
38.4236247246014
36.9447275499557
35.5359569509324
34.2266179301105
33.1358907248011
32.2150079371893
31.3074434784902
30.2405875544235
28.992005189608
27.760522381113
27.0783315839991
27.2760205522501
28.1676897765011
29.2038161523114
29.8368731362513
29.6284528281992
28.9780666216181
28.7747333176647
29.3534598788143
30.5086537170965
32.1686299717945
34.3212442179659
37.0171610618423
40.166529504891
43.5328394341094
46.8747051691135
50.2384792090549
53.6826811646709
57.0946605240425
60.0697797538263
62.1607052057094
63.2087477721067
63.4672937821694
63.5148940654986
63.8617216844638
64.4817373064424
64.9237781971676
64.7446062085376
63.9926160446092
63.0462077599636
62.2334870997749
61.8700096826647
62.3204352599995
63.1906181339601
63.6866530562023
63.6872066456
63.5082281052701
63.1590564120969
62.3484679489765
60.8957797658155
58.9218732407828
56.7133954441299
54.5220591346792
52.329673049777
49.9801911325615
47.4239304168304
44.8095077045934
42.2519987381528
39.9186853324647
38.0028527509414
36.6029305270417
35.7427447442282
35.6786896202592
36.5056660175856
38.2669107278486
40.8745214576088
43.932719753027
47.0640225106614
50.069144415012
52.8068037327875
55.0315916830751
56.5980825621386
57.6804226841493
58.4788908399087
59.0983556982187
59.5524742758823
59.8670773174461
60.2131538098739
60.6332909537158
60.2534684276924
58.7087813710938
57.0199374712203
55.5458904649996
53.8155699234879
52.0663791707223
51.099853662822
51.2171475627332
52.2724059843203
53.5324033547739
54.0163728485132
53.5536837640952
52.8229369606118
52.2751167912889
51.8639127028145
51.5133966863367
50.907135162816
49.8372637124774
48.5807252143444
47.3526550231829
46.3000616809033
45.6594639232086
45.2059081866021
44.7689960148558
44.6446843411004
44.5069351691415
44.0543134341771
43.8060867920852
44.2278567726802
44.2749025751427
43.8252245470789
43.5366509413189
43.4104948611328
42.7702770308628
