900
3999.43349933624
648.556783676147
1
128
8
95.9351960618045
95.9535233109905
95.9606196931713
95.9637453050924
95.9930542923559
96.0274120123763
96.021377332481
95.9925639607592
95.9410758778994
95.9367696903471
96.0035104486073
96.0303716082815
96.0542535401159
96.0944388098067
96.0687260336342
96.0820507969744
96.098088493906
96.1617496068911
96.1444594132259
96.0603693442222
96.114523068979
96.1909569352963
96.1701323319818
96.1354608026498
96.1958236646038
96.3641737104281
96.3503823322603
96.2270214652417
96.2461416253608
96.3185947645922
96.3970123291071
96.3977446351208
96.3293081874468
96.3740880179652
96.4822047427388
96.4767897612043
96.4049538632697
96.4095361443441
96.5438449202001
96.5840420722704
96.436182790743
96.4521281033046
96.5495864404881
96.6351628062322
96.5650380290316
96.4085727678503
96.4204140759809
96.5978143955815
96.6220167135196
96.4156893040296
96.4001754628976
96.5616333387083
96.65241900894
96.5440267040574
96.4576831145482
96.4067052000305
96.3985965830906
96.4662344714937
96.5557260631598
96.5409097668852
96.5267333761202
96.6157259837136
96.6223320252677
96.5613504543116
96.5714736098668
96.7008900047217
96.9710903344958
97.0929278878247
96.8830752129669
96.8285677300928
96.9828954372264
96.9006352432685
96.6535215275902
96.581803832704
96.5361932746156
96.5464681389903
96.6258894318137
96.5979542962104
96.4102707278551
96.3074351746316
96.141636422827
95.9987765733294
96.0678391943539
96.0239754088083
95.7086080649365
95.5847106258255
95.6219572084183
95.47370045083
94.9756444051289
94.3654749520586
93.9229984792386
93.6072742474356
93.3028479655603
93.0507243843507
92.5157831359855
91.7521372535048
91.1981974345046
90.7468453136702
90.3554204164992
89.9103015530881
89.3829525907736
88.9399177056489
88.4844686785321
88.0957783729628
87.7234462708588
87.1817192009124
86.6757719446971
86.2187423902893
85.7138155223735
85.3052938972862
84.961900529535
84.4429315936159
83.9446721472371
83.4878824934338
83.0277719081747
82.6684839956599
82.382468937907
82.0174470920134
81.5168287964101
81.0290217342541
80.5965497658427
80.2265069550598
79.8298990754787
79.3965749190148
78.9346540782435
78.4881981012285
78.1801155276206
77.8145108208499
77.3551542123913
77.0438247390299
76.7432098159358
76.2775856405347
75.8145654133004
75.4505418029395
75.0650855687122
74.6705624702458
74.304877982048
73.9792982159756
73.6520451619156
73.2678914526614
72.8905431458586
72.6219178257859
72.2843870324515
71.9100054291475
71.6058075335552
71.2743133430717
70.9721821067325
70.7588292079096
70.5179024610814
70.2877745167406
70.1418323043062
69.9320062521856
69.5479104548589
69.2167356080118
69.0764415037179
69.0089804546428
68.9233497592356
68.7379417669099
68.459616502478
68.383565373413
68.3563662645042
68.2616063041936
68.1942971349663
68.0447127025718
67.9560775892458
68.0738972816573
68.1521091010936
68.1523761775436
68.1963697497122
68.1925840161795
68.2379987604954
68.3708094610128
68.4306604062637
68.5082101453009
68.6164783809122
68.7205710582401
68.8131875041445
68.9432707405299
69.1291764688926
69.2508000099069
69.3048700537769
69.4515929664867
69.6208759771529
69.7378246309796
69.7888198663352
69.7877394758818
69.9046002385388
70.121830789297
70.158103626656
70.2379502463166
70.4011275522363
70.4318389922042
70.4708020394668
70.5737824377226
70.6681558945802
70.8637278091052
71.0692221713059
71.2039948927239
71.3304078519155
71.4734572834732
71.6564305736435
71.8356434426384
72.0127480155876
72.2444810885966
72.4652606334634
72.7077051496969
72.9360445718612
73.0939945417288
73.2817518340995
73.5908003201531
73.9114285739217
74.1987933229871
74.46718721762
74.7182946299536
74.9537436508834
75.2594940379922
75.6318710678479
75.9619596373236
76.2289860396389
76.5341553136541
76.8304307894871
77.1382234440198
77.4771598868722
77.8209877899377
78.1321436150495
78.4340379134731
78.7212845794992
79.0704143842656
79.3906210700322
79.6274675785061
79.905062246779
80.2614974038429
80.5766731801245
80.8414336986322
81.1052097688427
81.3550146815555
81.6044484073142
81.8797223815695
82.1026467759249
82.3476749290372
82.6263251381607
82.863325907395
83.0551406972236
83.2989098301692
83.5174477234525
83.694865645905
83.9124647017445
84.1733001170433
84.3686088251554
84.5251471957288
84.787280650626
85.0644148608641
85.2488822254402
85.4050946643808
85.6143388977952
85.8411427920229
86.0069941586262
86.1487453683436
86.3668021530282
86.5727623431394
86.7021655119894
86.8417937039402
87.0142802666627
87.1790315901488
87.3428199132539
87.4927046820687
87.6303599921498
87.7217431756083
87.7642073563297
87.826203660442
87.8903877943784
87.9153377294616
87.8499148149477
87.747194387481
87.6667133613245
87.5492933115099
87.3499303464507
87.0970705787327
86.8912637883305
86.7685859949683
86.7408860901912
86.8480287733594
86.9825561902496
86.9662939538692
86.7498410854248
86.4070116510173
86.0052326500502
85.6239876004246
85.204340305364
84.8249329847454
84.7416086494159
85.1277054514537
85.8429682498114
86.4675830567944
86.9027522237508
87.237005370976
87.5261620483489
87.7750072533411
87.9922413124741
88.1932991344125
88.382713449232
88.4644406636548
88.5251248144045
88.7171844322962
88.9282565149576
89.0425438888994
89.0180836593181
88.7176612011341
88.4169941424999
88.7252673115065
89.4618884972097
90.1219646132536
90.5951934854648
90.8665249446959
91.0260137086125
91.1597988000911
91.2981492136405
91.3806757359823
91.4890943607896
91.67151741359
91.7733153946391
91.8043965185351
91.9243473486272
92.0389780964073
92.1130405042704
92.2207218950261
92.3069542516986
92.3759798914445
92.4377062553956
92.5346865608965
92.6375247281723
92.6897285250674
92.7375325375872
92.75631188237
92.7804657909036
92.8275934553386
92.8857132042902
92.9330924874401
92.9594491666187
92.9851969220383
92.993883378359
93.0142622453479
93.1141531149653
93.1853860821018
93.2165977349634
93.249330927634
93.3160985540648
93.3640878150527
93.3922124041358
93.4499595644905
93.4922209774336
93.5183300396595
93.5566798263423
93.5815474602642
93.6443660191701
93.6965298208508
93.7455919484056
93.7948490015469
93.81709373719
93.8300054052692
93.8780090168356
93.9436033682502
93.9918849314564
94.0338461877334
94.0671793847715
94.1183263621538
94.1909387991008
94.2421720119698
94.2931001192775
94.3567778183598
94.4308335405758
94.4948727706868
94.5338227707629
94.592103379404
94.6760803432285
94.7068905040307
94.7656363038265
94.7978048906235
94.8033269516887
94.8838544395943
94.981433822981
94.9836940416082
94.9690697760453
94.9758671301076
95.0267867929041
95.0179340757757
94.9762270996144
95.0285513785698
95.0322582354287
94.9512896916356
94.9909044662841
95.1063728876897
95.1144230433967
95.0747628127432
95.1406542803625
95.165047680461
95.1269463060949
95.1816010222209
95.2802150055199
95.2894814091001
95.2269155885857
95.2124024487827
95.2968095770967
95.3230148328059
95.3483016755813
95.3484978169535
95.3156761824459
95.3531849203126
95.3967302355058
95.4020032973799
95.406845067373
95.3335874382473
95.3086565274943
95.3817280308427
95.3907257286184
95.3486649692321
95.3939210693821
95.5006446423745
95.5652976992181
95.4937548140303
95.4282947294827
95.4546864333259
95.4997988513544
95.5372158360764
95.5625257041773
95.5047193726402
95.4296923016315
95.4398547111642
95.453848815811
95.4187488470487
95.4596953546883
95.4957666664598
95.4366114098323
95.3690365097052
95.3645786965475
95.3842518479726
95.3899585733469
95.3667778844455
95.3172531847573
95.1996247679814
95.119077879767
95.1263388684333
95.2316490432493
95.2598723159293
95.2243887560865
95.2071266103629
95.2224533427529
95.251008822011
95.2569992232338
95.2591847702642
95.2678593660291
95.2791767711397
95.3225633170033
95.3932199298033
95.455114367445
95.4858750172886
95.5217837791038
95.5739638001962
95.6310482617457
95.6385996742564
95.6354918060966
95.678453272561
95.8167626811488
95.9301393622521
95.9256294901231
95.9538505640575
96.0297549934864
96.1237453708347
96.2497383944381
96.2663509384281
96.1954149037148
96.1588161748027
96.2822947579264
96.4782338393465
96.6042030631413
96.5168829583047
96.4903830225691
96.7149347542666
96.8258665855317
96.6669676502857
96.6869288072245
96.777972330814
96.7825305563952
96.8698141323542
96.9768154192362
97.0443193576706
97.1276120346048
97.3637835885974
97.390561017901
97.3093157319318
97.5635822126336
97.6612108517345
97.660282092593
97.8854052750494
97.9142455478526
97.4851291554759
97.1478530848081
96.8615427753734
96.463645335719
96.262366929137
96.2280655612825
96.1040261377867
95.910065003916
95.7579993094638
95.6901394748747
95.758509623531
95.94659476881
96.0032381809843
95.9028773834267
95.8971987955396
95.8858245621191
95.8375742344014
95.9166298410849
96.0388364267377
96.0375015501404
96.036155492835
96.1717179073093
96.3219985141979
96.4047344913744
96.4722282176541
96.3801161300484
96.4498200927923
96.831347988656
97.0231401441655
97.0417104762598
97.3907664032228
97.6801988566921
97.6506760941631
97.498936962958
97.5354507891903
97.6805048134361
97.6934783711142
97.6007031604864
97.6081748051991
97.4752201060503
97.3839983212135
97.2760863055984
97.2972914123409
97.3846416467183
97.3493070966816
97.4374357367363
97.8105072993278
97.9143576666473
97.929777241708
97.9047307943946
97.7680881413159
97.4558975470502
97.2548368266029
97.0905403979362
97.0487860019295
97.0541281201595
97.0781091273459
97.0074766603682
97.0369138862836
96.9596189880331
96.8108900589858
96.7377639671545
96.8045860928886
96.8393550887158
96.8425613685174
96.7641108029221
96.7638551562712
96.7638516448048
96.7709934271888
96.7648909812069
96.8192473833864
96.811779524152
96.7242033254334
96.6478201333738
96.6623144669902
96.6753451573606
96.7408835480634
96.7504260140347
96.7322753586191
96.6474557014824
96.6390670878654
96.6177381456829
96.6752525681431
96.6819764339912
96.6377848048196
96.561870820721
96.567050295106
96.5786450829303
96.5871062603014
96.5385076044732
96.5348211483651
96.4739938620153
96.3859223089292
96.330238303283
96.3379329253105
96.2897675691727
96.2373634700209
96.1495924203597
96.0790417925437
95.9320960579112
95.7765083713498
95.6094735236198
95.5249948425917
95.2138361830264
94.7626687571141
94.1830439147799
93.453708458552
92.7571502099782
92.3463664888413
92.1029132467116
91.9046757019932
91.6663828416019
91.5285390896652
91.609946750573
91.8083279727445
91.8587956723574
91.9782863022505
92.0661450571755
92.0346745027828
91.8005717282686
91.5529454743851
91.1101223519785
90.4231797657805
89.1530893284192
87.9347743222856
86.7370641214337
84.8104692074129
81.9433379268264
79.6898323872635
77.0969830260819
74.143304493279
71.2876424576304
68.399719386159
65.6652603508193
63.478451846067
61.3839013209615
59.8072099116827
58.0871528551947
56.5438701559248
56.0301987121694
56.3750237635306
56.4435934298022
57.7833764196366
59.7926743988758
61.7973885480228
64.1453332168852
65.3210962041988
66.3153606994845
67.1141905705761
67.646654915733
68.0568443221724
68.5513181109766
69.035678764317
69.5633395993428
69.8251151857279
70.4461987809869
71.1850928193654
71.7991344850009
72.2842060271176
72.0807799609999
73.3340594271846
74.7647407499068
75.1802746080822
75.6098362260222
76.0393484071507
77.8595472841437
78.7507376802327
79.4095935350099
80.071028660808
80.701231778314
81.5582980692748
82.1496298900146
82.2228946050396
82.2686811481714
83.6235960919048
84.0855591974554
84.1455311936811
84.5510024132418
84.7034094016696
84.9721344657991
84.8796483128335
84.5674119544938
84.1732966475969
83.6225427118013
82.9575814083283
82.4697432627065
82.0359415044821
81.6750788045211
81.5380582081999
81.2964616057301
81.1746616373084
80.8153718096291
80.1883425002393
79.4746539451968
78.6150404478874
77.6299256116774
76.6367316430669
75.6446090666689
74.7892319962599
73.816472301762
72.9073361277576
72.2912448313703
71.9266242162989
71.8137596468167
72.0387630139597
71.9452787481743
71.7234622784496
71.4651403412955
71.1600315764168
71.1192362448755
71.3026952378583
71.3345493698813
71.631223840946
72.4518021066972
72.9451071839592
73.1801047950583
73.5452197221834
74.0745332510642
74.7241823810595
75.6276760415223
76.3126185060504
76.7084605512907
77.1271253251898
77.4729283529851
77.8309969177989
78.2406868943984
78.6992664902885
79.2285968586341
79.7146569829388
79.6404677356598
78.051518565922
74.3437556844962
69.070641057697
63.1032513699678
57.4534277538907
53.7797068143887
54.4747631089675
59.5668390320923
65.278294897979
68.5984948821794
69.9151458306929
70.134739958841
69.8126406803371
69.3175141083372
68.8811009643694
68.6617670957702
68.7738528581893
69.2313829199845
70.0202727388192
70.9945408365668
72.035107158751
73.2216373859275
74.5656130213217
75.8817895126564
77.178419415674
78.5270274284253
79.8769226603927
81.0635716379583
81.9227622936933
82.3774087167351
82.4836113213477
82.3312828348733
81.8886775967793
81.1450966536158
80.1942562444361
79.1564625934051
78.2487510355645
77.7833716904471
77.8741373835125
78.3141482985791
78.7915705749014
79.0322536725294
78.8851579128403
78.3112489387804
77.3566097870659
76.1082400677368
74.7056207186711
73.2940656674067
71.9969327517897
70.8827351924225
69.9644633544027
69.1271285434835
68.2435017233503
67.291575354995
66.2788916803115
65.0930078152542
63.7067463899159
62.1596251257453
60.536038478584
58.9602679728761
57.567813768649
56.3537610712561
55.2595475544923
54.2268111737758
53.2897156765716
52.4949026587621
51.9155023512192
51.5304017185611
51.2838984592619
51.10864727854
51.0360213028923
51.1659337990959
51.6958517830645
52.7400272574368
54.3242202076759
56.258727544538
58.1149697969416
59.4618896841194
60.3091342265231
60.9643283817508
61.6942921304392
62.6301555989824
63.8106724108124
65.2523907856186
66.9755302248197
68.8421319800163
70.6694096729127
72.3882855491627
74.0256955574335
75.6368399638568
77.1539393132573
78.3938365507977
79.2631125174769
79.7362201892721
79.9503939253087
80.1829807753512
80.5658455763244
81.0128084177007
81.2875803661107
81.2201750766907
80.9400255926276
80.6662110514839
80.5736331910182
80.6424416034598
80.7150555998052
80.5854165922797
80.1540278606655
79.6028611744296
79.1120325170973
78.604676229302
77.8580234193354
76.6920307299657
75.0717566261228
73.2319433980162
71.550692959587
70.0160892990452
68.4365913186729
66.7185984267567
64.8715234625124
63.0243119174464
61.3004755219465
59.8672091749947
58.9616774083492
58.6328879199985
58.6855209936481
59.144565227799
60.3435401939968
62.0988702864237
63.9381309364546
65.7048155752318
67.3323846785495
68.7573174828771
69.8911533623201
70.6664151279945
71.1672302358412
71.4660499440714
71.6104314204639
71.524566794686
71.1732976376355
70.6270860307191
70.0478957191345
69.7277572657128
69.7007254476348
69.4983185553154
68.6842645298389
67.4229398798911
66.2679872389615
65.5245709423684
65.3666350532876
65.7934580408534
66.2991947088308
66.3347110135259
65.9784732874444
65.4343298605773
64.819864223781
64.3756661903465
64.1062375767831
63.8381270768988
63.2404364124517
62.3550521226131
61.5270694548419
60.953660115348
60.672599176794
60.479390542588
60.0820371003815
59.4988420919245
59.0936050211645
58.8148744583609
58.4255645692083
58.4256820346856
58.5943011035591
58.1274724727639
57.5625223771678
57.2586493031833
56.6664633682218
