900
3999.43349933624
648.556783676147
1
128
8
98.8538470215471
98.8159702259752
98.8190417041711
98.8574418154998
98.8771214814735
98.8825709044391
98.8880627195237
98.8917524769461
98.8864224670872
98.8774346135816
98.8873020043409
98.8866003737733
98.9033299451802
98.9977403396642
99.0006350506608
98.9823091659188
98.9858332024344
98.9779642336512
98.9985073776075
98.9799869558697
99.0181503391859
99.0741829316887
99.0139085488821
98.9417164143718
99.0313132123884
99.2316696883663
99.3642248913461
99.1997234991254
99.072050381153
99.1010428677968
99.1442827177636
99.1819506761672
99.1150052319649
99.0887360638567
99.2530593842253
99.3258334845282
99.1911521786
99.1854982617104
99.4223309606054
99.5486402400537
99.1510435988216
99.0444244294333
99.2888774811644
99.4245095797005
99.2172293622453
99.1182619749484
99.122673385713
99.2535276945131
99.3741366632497
99.2097209042332
99.0706562864463
99.166324836508
99.3331442912594
99.2935838445447
99.1472560886288
99.0692888810643
98.9766665399577
98.9437923780896
98.9857027031351
99.0076890764581
98.9758971074994
98.9887852716381
99.0881386677675
99.1158281047644
99.1419786001554
99.240370762703
99.4805495704966
99.6880558393726
99.4574097504601
99.2225589096563
99.3450746320379
99.3840472872045
99.0673335911909
98.9910918342589
98.9921514216623
98.8738900276257
98.8898282436838
99.0107891424529
98.7486155258414
98.4636777539105
98.3239374279921
98.232488020112
98.2635220884125
98.1844531399616
97.7534774767134
97.4505609735238
97.3598657815516
97.1472955445096
96.5581107680904
95.853596694482
95.3167783502288
94.8734043654325
94.445705342199
94.1990145262069
93.6739448584183
92.8202140889418
92.2366471489348
91.7571616202657
91.3965682590232
91.0739086879661
90.5363193402496
90.0572389605462
89.6477047260783
89.2315419350551
88.7593927538657
88.2284093725573
87.8026837494627
87.3884645487293
86.9851493470789
86.6202612098637
86.2314245183296
85.815179043722
85.3149924780748
84.8602633342044
84.4824757419957
84.1841577494892
83.8918425230201
83.3475842786377
82.8491911552952
82.4326255828029
82.0064645005828
81.7475056978227
81.4027040327676
80.8465400749311
80.368726226261
79.9883681312703
79.6550819577021
79.3062380148616
78.9872819176871
78.6230293159544
78.1002060756085
77.6004210823481
77.2616399276525
77.0175840068199
76.6916227548611
76.2738960036835
75.8672894040002
75.4929333028538
75.1069752029631
74.7125680504193
74.4030520974337
74.1914480711731
73.8872005907635
73.4985343308272
73.1330011009137
72.8150856452067
72.5224265788596
72.2591793770754
71.9903424955828
71.8028088224233
71.7260163149149
71.498857111547
71.1525724752437
70.8603105860239
70.635324598323
70.5085527981662
70.4715288336702
70.349632664844
70.172754101975
70.1437525378254
70.0757587182246
69.9577770922673
69.872192994594
69.7696455486334
69.747953266749
69.8645354194392
69.9388606499852
70.0206758972522
70.0901038207657
70.1116774535557
70.2483363523567
70.3678518776147
70.4391578513493
70.572695266657
70.6863716880867
70.8196091169173
70.9819655451276
71.1788750878992
71.3071445637419
71.3886426513221
71.5919156562594
71.8028243554003
71.9071124090509
72.0287946610419
72.1097951743216
72.2032173922015
72.4023951325497
72.5549123004028
72.6448411020754
72.8053676443282
73.0053454383302
73.1448245701892
73.2192183514433
73.2415090392717
73.3266414842482
73.5445299072103
73.7386113149247
73.9086079144658
74.0141289668969
74.1169124591589
74.2712078302778
74.4241661200382
74.6342197446862
74.8411959291748
74.9999245939981
75.1652155074195
75.3606791587261
75.6364207759454
75.8923119540834
76.1264958445977
76.3739065448159
76.6103706609425
76.860549673506
77.1611153083261
77.4941647793897
77.8065033384935
78.0714207801059
78.3671371302774
78.6488152148443
78.9204392173306
79.2404877437057
79.5799347366558
79.9006150941568
80.1987542761048
80.5252891693827
80.8100502424635
81.097800561303
81.4484029048326
81.8043904941946
82.1049689605821
82.3957979642487
82.7176498528819
83.0105061194299
83.3001994375388
83.5462464958908
83.7756274473658
84.0826784308809
84.4254778779918
84.7276137285687
85.0195973027969
85.246057950004
85.4890281217759
85.7387331247123
85.93616644262
86.1626956284506
86.4456126035204
86.6870340665574
86.9517092233008
87.1707467223278
87.3612728977778
87.5977669071781
87.8026596122977
87.9898131045204
88.2063414944746
88.4111752708049
88.6134101308467
88.7710881903976
88.8825949559113
89.0280669280337
89.2055536938799
89.2864722404182
89.3022220540032
89.2806321633883
89.1093547199859
88.968883061175
89.0452299321034
89.2405202850197
89.4833740163405
89.7562156022576
89.9345501937404
90.0040715058384
89.9366775007806
89.7271044807143
89.5364083161124
89.2534287656813
88.715507475696
88.0900725894563
87.3788630574669
86.6879016727586
86.2299644667803
86.116204391892
86.2638289705668
86.2787079703174
85.9099929840636
85.0788854094129
83.7588660337208
82.2110234987761
80.767277623868
79.4924941237731
78.5905936215672
78.4123127280361
79.2106375060768
80.9193622164124
82.6719763499722
83.8405284930985
84.6770435569821
85.4626620950473
86.1380278044156
86.742954417412
87.2893954779381
87.6037311349718
87.6178481244342
87.6603352697664
87.8626748558398
87.8791659345282
87.4968744382369
86.643010753849
85.4327062756604
84.6289115244954
85.5517458251699
87.8794677923837
89.8451134192164
91.0259736448133
91.7265173178232
92.1568297306787
92.4942482225604
92.8012311390154
93.0476990960057
93.2729864165325
93.48640328969
93.6523492748027
93.7486468617613
93.9145645660135
94.0907739304734
94.2338776954485
94.3970812914838
94.5448029809134
94.5972892581991
94.5977479756694
94.7192282729165
94.8446584130382
94.8899473430436
94.9458910752301
95.0115702460207
95.0290241624686
95.0527426973505
95.143497436898
95.1920009286117
95.1999401855808
95.212141131505
95.2128846223442
95.2372410751564
95.3301741560325
95.4027409815642
95.4450515580231
95.4732572164776
95.5241584737204
95.5684526124851
95.6116993232577
95.6904309578798
95.756553692306
95.768098488803
95.7936027318042
95.8276755537736
95.9084310802299
95.9689659243982
96.0202023510401
96.0725232193616
96.1093750059257
96.1097095647134
96.1582561517414
96.2192876565205
96.2688241549769
96.3069221878716
96.3537453183727
96.4603766888641
96.5605342645153
96.6046112528406
96.6518459732624
96.7230906692438
96.8209897316882
96.8749152964918
96.8806775909531
96.93686758833
97.0460396530501
97.0865134572391
97.0976609190322
97.1778258315904
97.2775574590384
97.2735106629151
97.2705590041682
97.3098104731334
97.3159161450269
97.2706911997439
97.2671766134209
97.2597113552282
97.269471770606
97.3095527619213
97.2810234038199
97.1938436117082
97.1751942046848
97.2528930098061
97.3530909270996
97.4000575053609
97.4144091797046
97.4546938361948
97.5111838554984
97.5563083805362
97.5751496091064
97.5869125057234
97.597045823261
97.5782965467312
97.6154564242487
97.6133995700367
97.6037107307956
97.6809205087774
97.7135538658387
97.7158239822357
97.7561293753237
97.7443545152064
97.7484931463755
97.7455344717987
97.7184526731815
97.7454462551146
97.7729122266274
97.7701063308775
97.8021973368203
97.8054279997841
97.8295496619553
97.8693187139538
97.856110581359
97.8003716446023
97.8284168289021
97.8477133869182
97.8017364281674
97.7978877865875
97.8014523619791
97.7726635685084
97.7708999728597
97.7976547796735
97.8108609206789
97.7805107122101
97.7430465262635
97.752114651427
97.796670980264
97.8065151095883
97.8784093201032
97.9373108412747
97.9461975055731
97.9041146717397
97.8520752361742
97.7486401112007
97.6559423331761
97.6868003875197
97.7607574501561
97.785702203567
97.7894833592183
97.7177057505829
97.6624544609503
97.6728840827029
97.7516958806461
97.7395775755069
97.7054774262453
97.7743841825756
97.8552669543705
97.8853022551116
97.8552385123045
97.8634786510456
97.9650292239308
97.9972595939295
98.0301976034629
98.1416101352883
98.1748084858019
98.1612152878336
98.239537847272
98.3571144588219
98.5108307823775
98.5179273154904
98.5003862278744
98.5514868948304
98.5997050911999
98.731238859732
98.7669397263894
98.6170058085263
98.5315212780468
98.677128603217
98.95908820561
99.0575778059901
98.9840507840233
98.9665285088704
99.0151037324134
99.0111753310511
98.9788717403962
98.8488090208697
98.9509836808889
99.33848359998
99.4991622426924
99.3858890405716
99.3505189446112
99.3932307607465
99.5633950763842
99.7958280639271
100.235223351848
100.798010857186
100.384368818032
99.4345003771681
99.0395011449829
98.6693659755242
98.3775997201498
98.3900510244368
98.3915463958677
98.1733366265487
97.8853063497786
97.768025652728
97.8281642054341
97.8978414455221
97.8750731517214
97.8162039749718
97.8126319821816
97.8080537916554
97.780498244867
97.8329520434242
97.9144982185964
97.9446686610833
97.960604095818
98.076124607265
98.1382277392117
98.101677657924
98.1243133329543
98.3041057570208
98.3566589196487
98.314620666255
98.5673948875808
99.010605237404
99.2852961929132
99.2841830993062
99.1859146757938
99.3566041763843
99.4073217210865
99.3340071547117
99.3834067713679
99.3926295204232
99.4490783818671
99.5654916676103
99.3321583684344
98.8307104537101
98.7723684896231
99.101399910254
99.2118893820665
99.2319178602677
99.2005893085479
99.5164841535999
99.6800645110525
99.4485980837167
99.2520488658117
99.0746044437887
98.9060305102579
99.0486527633381
98.9098886919188
98.7186171384029
98.6532711877929
98.6730893274535
98.4947248725436
98.3414385937441
98.4374233019183
98.5677213197337
98.4744141177461
98.3368440511051
98.2439225069289
98.2941235394797
98.2967815913992
98.2553705491702
98.1984844426356
98.2547212289927
98.2803008481148
98.2943307096855
98.2011228357569
98.1499751837283
98.1449490445838
98.154557507594
98.1119152790597
98.1751987691216
98.1448719909053
98.0434995328524
98.0263848684638
98.0634566020907
98.0304127284945
98.0540740486389
98.0058021305663
97.9626524673029
97.9199426487963
97.9354875156019
97.8974097693859
97.8508389265939
97.7959612805129
97.7319377110074
97.6541632001471
97.6326810753047
97.5580373350048
97.5186852346122
97.4197480146178
97.3270284256527
97.1727056706793
96.9994349415378
96.8236409454403
96.6495708767794
96.3879664710378
96.0870669232477
95.5343663597701
94.9270916858596
94.0985973464341
92.9758920220408
91.936676515684
91.1252088407883
90.4703539265489
90.2415024302027
90.1875409698792
90.2245551868319
90.4729715253104
90.8421911087747
91.029423850594
91.1945494918916
91.3286049687299
91.5089980264204
91.3919223578222
91.150753972412
90.839560884026
90.4245612788895
89.418055894453
88.2763773824269
87.0018688860527
84.5165042189618
80.9628324994795
78.0626523505366
74.4284066185168
70.1670454258895
66.2650967779306
62.2404668422257
58.6387485401732
55.4282483482822
51.911528184762
49.6424377294052
47.4365993334825
45.7015003410813
44.9437100290165
45.7369591596617
46.7207566141955
49.4200400954952
53.051092044447
56.5142669847078
59.7820050318703
60.9275226006261
62.3917652847589
64.4866888153212
65.8287897822105
65.7071514857332
65.2317093945143
66.093186076679
67.6985434133365
68.0984973056179
67.2605780480054
66.6846885507147
67.5362282725187
68.5003609152748
68.311998745337
69.5569884323535
70.2671719143048
69.3719742644787
69.5385206353562
71.3456751715349
76.2486162341032
78.3512901468193
79.6716325191703
80.8955003406448
81.9061644028507
83.3085333163865
84.408338779968
84.6448811887373
84.6613850079639
86.2332588659915
86.969755141451
87.0829241498472
87.475672817571
87.5651007165491
87.7293206280954
87.5721735562372
87.0765176610486
86.2500424325424
84.2954112272185
82.1351456368413
80.7868231783884
80.1576820201536
79.6345876791098
79.699626313709
79.8334408672652
80.1136116891163
79.9740893719648
79.3498057666168
78.5714273458698
77.5890894911364
76.3108962325451
75.1155310436338
74.0108752199531
72.9994566488839
71.8388071823018
70.8583347813165
70.4846201619157
70.5706278762792
70.8764774331556
71.372537834649
71.2059551232595
70.7127325538579
70.0554936010908
69.3201765013203
69.0370895993701
69.2612241641207
69.3441400431761
69.6997762164886
70.6784973541888
71.244703963299
71.3696013970822
71.5588099704688
71.9870074254948
72.6498697332916
73.6410251496426
74.3374495100365
74.5949298162577
74.7788512915741
74.8307005620383
74.8456144277148
74.9824336101476
75.2971572633832
75.744422070475
76.0935854277587
75.522155425223
72.6067884175438
66.4934123919921
58.2030734475612
49.2318890862354
41.0224236454005
35.6734221158798
36.9798404077801
45.3780494267392
54.8032629713491
60.2734895573016
62.5622010166526
63.2767631735261
63.2487531399947
62.9331492473937
62.6740453256458
62.6677734742211
63.0192777078178
63.7480033382702
64.8260117143434
66.0509487206191
67.3686767378106
68.8039295750359
70.1468136693485
71.3028917102339
72.5102330245474
73.8581406081741
75.3058289915725
76.6423907470396
77.5796826627639
78.0084638822935
78.0255122008743
77.6733151644399
76.9262910397442
75.7765004246502
74.3311046769196
72.8122263787869
71.5630073020232
70.9728951058523
71.2643994716603
72.1885325153127
73.232725173546
73.9527999176139
74.0272984096257
73.3489764945676
72.0908915999225
70.5466098160528
68.9506725826756
67.4833767088296
66.3075079460425
65.4906077368365
65.0310539914099
64.6777329028565
64.0973712280315
63.1756959176948
61.9889134722052
60.5593361817505
58.9125218325087
57.1159838237768
55.2752187931429
53.4676043603919
51.7689328718184
50.2475359221317
48.987373544045
47.9244618878714
47.0668112517933
46.5702322225336
46.5776185079316
46.985356802901
47.5969296120274
48.1959382727847
48.7391684956184
49.228749210783
49.5845101268366
49.8375125578685
50.3861473053999
51.4521982772335
52.6589617098688
53.3730820783221
53.5260209093896
53.4484146155029
53.4683970556363
53.8359365712075
54.7769274153225
56.371961174396
58.5623312007619
61.0939104613003
63.6570436749436
66.0977800374721
68.4962411884044
70.9173430706593
73.149776500486
74.8450455740086
75.8675152297774
76.2863840261203
76.3474200839543
76.4565467182597
76.8186981274756
77.2135802224039
77.3024593723166
77.0132608968839
76.5701714925089
76.2247457623397
76.1467100252291
76.2822265867262
76.3006688527054
75.8442703037168
74.958898881514
73.995564389903
73.1402995074906
72.2445787193628
71.0150723454406
69.293560066733
67.225475771282
64.9660760867204
62.5709985418458
60.0787667293919
57.5070929257923
54.8848329788018
52.2477957259352
49.6914899818718
47.4923394887427
45.8151304066778
44.7879248715906
44.5704861217206
45.2016695407716
46.5871387914156
48.9052446809328
51.9849438295626
55.2250765637303
58.2020564679353
60.7589874496666
62.8908070706949
64.5916021746736
65.7587147462755
66.4383171948164
66.8244580041318
67.0720490510603
67.2747435903857
67.3608289647909
67.4181520591265
67.6085273408387
67.3615445381837
66.5083898199775
65.2892964479898
63.509474334694
61.4384931182188
59.8407672500398
59.0299542870485
58.9799284161335
59.5952520362053
60.2659668438726
60.2983114725981
59.6364004399675
58.4874474735665
57.1962652654664
56.4251905960332
56.3031180943503
56.1894393005416
55.7210056710488
54.9959316875909
54.3657946383722
53.9429974137811
53.4267872339564
52.925834849835
52.5705368321583
52.2485159672368
52.0882598776457
51.8925151440011
51.2189864449254
50.8301827368511
51.0695074624006
51.199827868163
51.131167526236
50.417227271287
49.5419485077575
