900
3999.43349933624
648.556783676147
1
128
8
96.7488204723487
96.7704310863226
96.7466517926651
96.7284218130718
96.6729097049315
96.6910970199525
96.7313725390792
96.7017101409834
96.693071163244
96.7947673237732
96.8411414838387
96.7997771613329
96.7690375109695
96.7997269097498
96.8097309782829
96.814186185275
96.815140194225
96.8783517296915
96.9121278508812
96.8686598054563
96.8509290129541
96.9128537297845
96.8521923512424
96.7908182645156
96.9003782965621
97.1076204656132
97.0286046280328
96.8630828656371
96.922319023348
97.0257371455735
97.0549067371506
97.0083739300713
96.9272807300353
96.9814365880672
97.1118941058569
97.14776754304
97.071253417877
97.0729645937479
97.2176144630053
97.1991819837451
96.9944889336473
97.0674171054643
97.2143843744827
97.2584291530791
97.1025698955692
97.0016800530044
97.0356362548338
97.1924328259131
97.1938065519646
97.0278840604365
97.0241598154728
97.1181491507307
97.1514230209979
97.1482264069432
97.024625599271
96.9748043493672
97.0224124319776
97.0260457272586
96.9867347934464
97.0154938747414
97.0365135536116
97.0556894934806
97.06948851795
97.1534185667167
97.2442679504675
97.3258538264159
97.4513303858123
97.5438015416213
97.5059768120297
97.3769944091928
97.4102804996892
97.4245124274768
97.2527846585012
97.2379411963059
97.1990265626302
97.0758087986316
97.0649412553978
97.1248481240631
96.9777479890683
96.8291180366574
96.6828857471513
96.5436883925046
96.5446960383516
96.568396502048
96.462572203864
96.5108985787082
96.7000915169884
96.7502856506163
96.3545288790239
95.9157563569705
95.8077785478099
95.795201142681
95.6620643955455
95.5722088288241
95.3431742347471
94.8932381328853
94.5608139931694
94.2873147396154
94.0963528990606
93.8932514866471
93.4918456589351
93.1517438706278
92.9222113321115
92.7762131979228
92.5678180934499
92.2206903799613
91.862502669827
91.5277482880305
91.2642747051137
91.0858833054987
90.8383429182756
90.5745482005453
90.2887545002241
89.9348535248242
89.6233768819817
89.4159165540515
89.2472825125652
89.0071933497888
88.7843162577005
88.5534443488065
88.2138449351523
87.9839011627144
87.8743373716051
87.6363777037726
87.3833001153891
87.1227404951481
86.9179243323677
86.7525006867183
86.4683083931323
86.2051395495322
86.0180653269882
85.84663645289
85.6870711380435
85.5108397123413
85.3314414159174
85.0905338298523
84.7922516142157
84.5734006129263
84.4132344665447
84.1739358279097
83.9670271166161
83.8841777778877
83.7508344227555
83.4466012790153
83.1624194746141
82.9835479030731
82.8240930219576
82.5937924476705
82.4639545961529
82.3904937975496
82.2188402591054
82.0952289552936
82.067623429786
81.9243140210518
81.6700311689577
81.5447899773512
81.5104124740466
81.4410487656474
81.3359983058232
81.2047171325332
81.1694993933487
81.1265897429137
81.0497791980239
80.9560868897437
80.8581290396825
80.8782250704857
80.9184917522133
80.8924661645303
80.8589956261635
80.8031334419028
80.753349874013
80.7943128814979
80.8946432669748
80.8996188619028
80.846696033186
80.856270095171
80.9239315340037
80.9903792450034
81.0419947054388
81.0920556296544
81.0812585649552
81.0916402395816
81.1651586497104
81.1788187797078
81.183547298465
81.1995315998477
81.2262543148061
81.2517166892435
81.2919095873867
81.3205909596163
81.3279594349676
81.3400461346901
81.395176719164
81.4074555052643
81.3736794943142
81.4766988495252
81.5786241925405
81.6046939325388
81.68069500792
81.7849058775881
81.7981861563164
81.8296763161936
81.9827716262213
82.1048951135295
82.1245952934356
82.1397041600817
82.2817739085147
82.4318115204609
82.5468497311475
82.6393716733566
82.71981843668
82.8038385918096
82.943570576361
83.0361192017905
83.1587213922688
83.3263003867146
83.4220743553233
83.4982342766636
83.6379853571384
83.8030006750685
83.984420196615
84.1620356951778
84.2534333893124
84.3291463454077
84.5184259737106
84.6056599914779
84.6396867290688
84.8308992000983
85.0737962406076
85.1655090705458
85.2243724885919
85.4028125052462
85.5373293408096
85.6179637154597
85.6807024173409
85.7054284419203
85.8493634129228
86.0392893105486
86.1991834984831
86.3096208703718
86.3715961423808
86.4698914192623
86.5656646986691
86.6191543596174
86.6733897285856
86.7255867179092
86.8999925279118
87.0628752919137
87.1341950596352
87.1326949049861
87.2244979931818
87.3181775721278
87.3919197477753
87.5194892323348
87.6511238288627
87.7198793314068
87.8115738826558
87.980656897838
88.0572156999532
88.0891219534277
88.162037875444
88.1419487783138
88.0421413592654
87.815946751992
87.4682791415446
87.1599647241442
87.0855817903206
87.2961856734313
87.6814951894647
88.0576489007726
88.3931362531809
88.511537441938
88.3805672454163
88.181678986002
87.9727348436765
87.5762626748395
86.881820568099
85.7687569328024
84.4566851890079
83.1282099497348
82.429092170023
82.6804632263801
83.1064469683793
82.9108099534655
81.8468307896209
79.9071269210043
77.2696612482664
74.1974378601326
70.6899224237336
67.3503111775707
65.726493508996
67.1853721101195
70.8303896679971
74.3097459066376
76.7268258973846
78.4214878867142
79.8520270174846
81.1532524178846
82.2831088658429
83.252738371462
83.8853888318593
83.8729585610439
83.5888331375918
83.6345392731048
83.6392535781546
82.7653555078272
80.546927174997
76.8146178994454
73.406614579157
73.8815077016128
77.9781831828097
82.1728306495373
84.8854934191799
86.3955909840418
87.3406551187586
88.0646537914757
88.6657706836863
89.101595042343
89.4511658306865
89.820778188151
90.1226258132272
90.2747387545496
90.5101983713299
90.7330413944097
90.9070036675893
91.1315349916352
91.3054733090312
91.3831601358832
91.4904370210105
91.6688839109511
91.8230035046098
91.862111794539
91.9065676488955
91.9914161541884
92.0675166721503
92.1376541374367
92.271161137227
92.3227486097812
92.3337834550815
92.3914440659945
92.4073163608604
92.4510159623823
92.5932819249728
92.6639993179822
92.6803660551415
92.7408571582096
92.8393583134495
92.8891253651766
92.9470337310445
93.0172016615579
93.0826189263894
93.0935971018319
93.1011966011998
93.1101272503962
93.1646904085969
93.2370862828969
93.3026021471123
93.3113144746674
93.3344313881017
93.3860359197727
93.436890431098
93.5115510684362
93.6076532633761
93.6319317222431
93.6701280932739
93.7608578849383
93.835649036356
93.8190284909822
93.89157857457
94.0099228419739
94.0546362592613
94.1121423276394
94.2255273273681
94.2582943278469
94.2640096703524
94.289304387547
94.3711487011202
94.4511237748319
94.5051719681597
94.5348919001441
94.5489467362828
94.5406381351898
94.590752110963
94.6425152312075
94.6969224105991
94.6957547880629
94.6759133567759
94.7366703146545
94.8441655339686
94.8047753422848
94.7872898469974
94.8377839829025
94.839398786513
94.8013195199392
94.838003476212
94.9109297520914
94.9649002547835
94.9542568298183
94.9639516591756
94.9756496653795
94.994246705838
94.9556479654485
94.9798662667497
95.038574812068
95.075682617621
95.0320074671522
95.0363715913238
95.0890353241913
95.0915881182525
95.0550561911487
95.0828463936744
95.1123888610485
95.1619219287868
95.1591288949995
95.2017258542115
95.2029629378168
95.1877116436407
95.1695398866889
95.17210366748
95.2395375602488
95.2800701920023
95.2669460738725
95.2731695354475
95.2654635972688
95.3157079841422
95.2727827154271
95.2184535531889
95.228140069733
95.247745024327
95.2109199719223
95.1876016673003
95.2077504603649
95.2182484497744
95.2177605247988
95.2395079463242
95.2277618102118
95.2731548931045
95.3489457381233
95.3757065743456
95.3386471636507
95.277941884428
95.2074288678505
95.2203162811713
95.221739524474
95.1601954397378
95.1240440433146
95.1818792290608
95.2062242257102
95.1960633897923
95.1783486863037
95.2239955060225
95.2715805969396
95.2961610152055
95.314517421369
95.3282334844346
95.3638652136818
95.3984173302867
95.387607793472
95.4274082185532
95.5520768157933
95.6831208947592
95.7154305621902
95.826478564044
95.9632841271989
95.9599404545808
95.9739097424934
96.0638583802285
96.1369909217234
96.2173312133478
96.3128958763298
96.399939724395
96.4375025156419
96.4859687380718
96.5552539837456
96.6880647061394
96.7491772697198
96.851164374674
96.8620022914809
96.8410784479735
96.9132811227594
96.8898565893306
96.8639913319046
97.0304496337983
97.2080847852616
97.2943631672405
97.3757792971162
97.4839045324031
97.750673167189
97.9286443918235
97.4395751335584
97.1695897960507
97.6286232497275
98.1066005071444
98.6528466548402
98.55659076159
97.6108867085178
97.1852281856366
97.0123075019799
96.8432693397868
96.6741327691039
96.4360070589655
96.26721408058
96.1080770618108
95.9483570544678
96.0146821072012
96.2450041833612
96.311119903644
96.2808831261041
96.233821808433
96.1605273507994
96.1833213688769
96.2182174630615
96.1211336205643
96.1796577073526
96.3745888611078
96.3883717996173
96.3596260603034
96.4547466604074
96.5983137719876
96.7161378274473
96.6889250457206
96.7388651653797
96.9450173945562
97.3036534053479
97.5287419531527
97.6185476804361
97.6834941720867
97.7849277856413
98.0021021400326
98.1713455626468
97.6830687398055
97.1305676653388
97.2200482050547
97.437129443261
97.1992869055095
96.9539487712534
96.8287501108146
96.9597666966322
97.1586678489912
97.2741011586425
97.2934692158401
97.6500673180703
97.8766372700832
97.5955911921519
97.3492131283629
97.4955451661883
97.3712592007429
97.1845656652905
97.1580763283216
97.1878902497021
97.0773928324383
97.1019287456662
96.9235339821702
96.7701498480676
96.719228873015
96.7549485995658
96.8508262904893
96.90985405712
96.7642719072264
96.6340960626623
96.4998145907208
96.5119758299928
96.5965672699219
96.675024404166
96.6139052981406
96.6044661498424
96.5611748436697
96.5252890212531
96.5040409169291
96.5522059725098
96.549087344671
96.5312400338973
96.4998076756604
96.4910618791226
96.427785710009
96.4711196105851
96.4669846967352
96.4706177824518
96.4781311989537
96.4479881608048
96.4056851646203
96.4176669278819
96.3968291293979
96.3854073047903
96.2995347988575
96.2860270312336
96.2873879554501
96.2587956162125
96.1919568758506
96.1871335918075
96.1384825629016
96.0700057646883
96.0386934794304
96.0360620260182
95.9296848418062
95.8840970470909
95.8316629010947
95.7934215541974
95.677829954093
95.5879822095415
95.4571388170543
95.3367886883642
95.1917814240661
95.0997740316347
94.8937105489542
94.6635908884973
94.4745076342141
94.3769384364736
94.3066685286396
94.2609693191591
94.0470830258539
93.8282707002494
93.5194426513182
93.1345240872479
92.6708004437602
92.1684235498165
91.5343963831608
90.9099493363149
89.8454562462983
88.7953921280587
87.8113462362355
86.7311926818605
85.3492743127064
84.1271328508237
82.8299394639877
81.5957570801705
80.3232956620077
79.0488989855353
77.7571934565209
76.7333299411715
76.3066161797234
75.8580786808537
75.2278634571678
74.4758262745525
74.1722201925188
74.1763612858371
73.6053676218209
73.3680523279439
73.3079664546838
73.2000750513932
73.1185755270001
72.7202381233258
72.2745772070109
71.8072106643489
71.18363459888
70.462377433532
69.6318117360652
68.5961287958706
66.813516378628
64.168212941825
61.398046651938
60.4682655763243
61.7530851844353
63.291686641551
63.3297268355401
65.4272832888551
66.9081618779556
66.5429138314353
65.5296264502448
63.4757948443412
62.028465462844
63.3706667528814
66.9949524680041
70.2285023489661
72.2587452359197
74.1678610592689
75.3184734192658
75.3478279897822
75.080732626559
76.4681378190074
76.5728374150315
76.1078357942019
76.1829332738706
75.9616463493102
75.8382626489777
74.83225109092
72.9878450380943
70.8720195457697
68.4040872015372
66.0711959245265
64.8160221058874
64.4701652957324
64.8846831207934
65.474237709027
65.0329626168317
64.9136477715408
64.4332840655898
63.4972034627553
62.5839185972369
61.5660712249117
60.4178564772862
59.0569828803919
57.5278487435822
56.3264849174955
55.0402749396309
54.1490272547239
54.0421818623388
54.3839121364164
55.2283963034436
56.9951734432276
58.0579907518934
59.4766890195952
61.0016144038559
61.798433510587
63.0383226899752
64.7120479652118
65.448037785359
66.0215274850177
67.270231668591
68.1322989094419
68.6731809775939
69.4504427517584
70.3955109303165
71.4373682382726
73.0209039211352
74.3713913543952
75.1025597371334
75.6616462578386
75.9601570894918
76.3009483793236
76.962898761582
77.80908932978
78.5933187023518
79.2756204339266
79.8871782054741
80.4607098274875
80.825808797962
80.8361504464035
80.5783196067616
80.1553473671754
79.7704985696442
79.6326215816394
79.5584632523238
79.3414242623867
78.9393097598126
78.4127712211918
77.875031490238
77.4424328914972
77.0897153157365
76.8520491772532
76.7325172643626
76.7047755052376
76.863935660132
77.299571778574
77.8769981707362
78.5607049777537
79.4237485142907
80.3132137139156
81.1050981153614
81.9178587570048
82.7048953100051
83.3900427500394
83.9454934854628
84.3809195895502
84.7342128916477
85.0280773933341
85.19689182879
85.2206580399274
85.1346877835994
85.0037664071397
84.8283414686008
84.5924164802694
84.3199609583797
84.0163836677309
83.6405905765113
83.1563239565806
82.5476848262326
81.8019311758521
80.8745190583123
79.7248005680269
78.303596333532
76.5693634460252
74.4756502613093
71.9428031416191
69.0931631490975
66.407676502496
64.1465109641279
62.1677188828682
60.3171553816695
58.6367318077956
57.1220462897843
55.7227571413427
54.3402231427356
52.9352953353837
51.4916972382629
50.054326029434
48.6020151092764
47.1347466915474
45.630339099523
44.0944970528444
42.5001324961215
40.8645080319283
39.2028647761669
37.5902664910548
35.9735336458801
34.3745665748808
32.8829639330095
31.6898789349607
30.9545527307256
30.8493527536359
31.4036835945185
32.539200985658
34.010214335467
35.8088574775458
38.1099040318374
41.0401162307874
44.4624842186723
48.1804821479722
51.9598707062766
55.6555345218681
59.0905566910322
62.0080805083862
64.1408824610921
65.431402376755
66.075960269927
66.6226586328383
67.4691043103462
68.7150566449551
70.1738998555424
71.5140942080377
72.5839150634952
73.4315671381009
74.1522794971575
74.8311365075685
75.4070192017892
75.8489031290145
76.145815979995
76.3050774632024
76.4989987821314
76.9014608263355
77.4685952113628
78.0225913382804
78.4227599521616
78.6486155991808
78.702383768858
78.5019001183277
77.6371058397806
75.7004960146643
73.2949211558049
71.8949973957086
72.2187673418839
73.598395896162
74.7109491278199
75.4626634545766
76.0939008064418
76.2516715315791
76.1808955889487
76.0858266816406
75.7912893597067
75.2086829660103
74.6320050677383
74.5209535141362
74.7124926954329
74.7417270810321
74.5780234998501
74.3682375101092
74.1635344284916
73.9921983261327
73.7663688331977
73.3817478284959
72.9474737471413
72.5902258068113
72.1545971913996
71.6580268173789
71.1835271189346
70.7544577683835
70.7519962450463
70.8084258310415
70.6454804740234
70.3896097050637
70.0304910876261
69.655245419559
69.2738226724125
68.8798134241144
68.3880425402524
67.8530440672185
67.2696243799528
66.3850886407273
65.0745254755994
63.6412834783623
63.0294893097025
63.4320830049814
63.7135596701829
63.554621144111
63.2773722375481
62.7668530117168
62.3118879818986
62.2127698512561
62.2173423022741
62.1710451791213
62.0699466757833
62.0294901603335
61.8015464568048
61.2279344496602
61.1529393436032
61.0692491771969
60.5550244591893
60.52014364256
60.8350421533487
60.8549856606533
