900
3999.43349933624
648.556783676147
1
128
8
97.791590867796
97.833761327142
97.9260508804654
97.9153479876313
97.8959727109175
97.865622980402
97.8441391305055
97.8915326016922
97.9418756804062
97.9811979005946
97.9453494426463
97.8674818033206
97.9065558361683
98.0221415784292
98.0654539704689
97.9791574929153
97.9197832783821
97.9411145181009
98.0031142335336
98.0067850966651
97.9614431399702
97.9427412983468
97.9841388501652
98.0141295429348
98.0399378646806
98.1453250734993
98.12638601282
97.9984921329861
97.974566989697
98.0578274471198
98.1629334938579
98.1773073001612
98.1323119842831
98.1260039586352
98.2150000676001
98.2331413538029
98.1753989867537
98.2114578294193
98.3594421989372
98.4036114055299
98.1865770976582
98.1417389557695
98.2247776533178
98.3020699128698
98.2091172256827
98.1307664855851
98.1399956013646
98.2691556785493
98.3671399070028
98.2511875406336
98.1789646371791
98.2020039986812
98.2659879803264
98.2869935058109
98.187400606439
98.1166660042174
98.0977352697822
98.0929128827737
98.2226688007514
98.3253859401737
98.287011334948
98.2637366406542
98.2798457780046
98.2550768154205
98.2709913338349
98.3639956732445
98.4785698289108
98.5752682959167
98.5139647546302
98.3626992620808
98.4298947459471
98.4733013544451
98.3627252450201
98.3969377186172
98.4008837888592
98.3130685509086
98.3462488239257
98.4664522005114
98.3947669682127
98.3240500215926
98.2334875416175
98.1467943725615
98.3210744162258
98.4140529454888
98.0716630350297
97.8823767173821
97.9282507008886
97.9941592531697
97.8148202248499
97.4793921253325
97.1423853427464
96.9543199713074
96.9519230838744
96.9763713526959
96.9990840687213
96.7715618874456
96.4666692499672
96.2445842163269
96.2282914758253
96.409955375116
96.2868533939525
96.0865103650383
96.0863989537292
95.9556712672024
95.7613488831059
95.7677974215302
95.6166826068249
95.3178417382505
95.1567426990213
95.0993227691352
95.0852609128749
94.9630855653565
94.779208870221
94.6476747091987
94.4617699242681
94.3922782786268
94.4846604766769
94.2793078652412
94.0194707394433
93.9327299851356
93.8836662574669
93.8880846449266
93.7884316083562
93.5514253805977
93.4611431628543
93.3114116350202
93.1436534405278
93.1816061409185
93.1200873786462
92.8991188750535
92.7204415477096
92.6833284716481
92.6881181267472
92.5633084524006
92.3888328075712
92.2253886391242
92.1410524051861
92.1334430013144
92.1186345382865
92.0536121077889
91.8978459207601
91.752468856889
91.7083899509462
91.7015837199282
91.6870638413738
91.5226673212164
91.2838012844213
91.1899552512151
91.2394844299529
91.2657346026125
91.1899114158992
91.0970157482351
91.0252386333572
90.9430926575589
90.8999732464342
90.9253193948751
90.9066313006567
90.8680916233629
90.8183188077526
90.8045325935667
90.8039623467257
90.7937054376479
90.8618307066382
90.874534222412
90.7988660273081
90.8279625089014
90.9226997471939
90.9428068516563
90.9644771942697
91.0169647266879
90.9975160694775
91.012397641383
91.0867605356433
91.0845429959508
91.1896968218603
91.3311042372973
91.2723288788567
91.2485846150246
91.43954125688
91.4706867163798
91.3840633836879
91.4791735182388
91.5744697205749
91.5425378800403
91.5035473420029
91.5254126569727
91.6755897509793
91.7421131091213
91.6373653398025
91.7064767172652
91.8707358485118
91.9162152015568
91.9201274634919
91.8985785258594
91.8931052494144
91.9515332845716
92.0687046644413
92.1623657246133
92.150821436847
92.1443435704668
92.2019019871326
92.2308622635241
92.2899946686943
92.3516798371245
92.3949805526237
92.4264381566513
92.5260231080813
92.6233485040783
92.664868982912
92.6908033598264
92.7953816239045
92.8363030117037
92.8176204991269
92.8902185700718
92.9939115263308
93.1316829506996
93.2172710684729
93.2795237686518
93.3372096938163
93.41345376475
93.5439343420123
93.5726752770743
93.6459006516385
93.7815550806434
93.8304376663018
93.8526719318387
93.9029373976061
93.9938036677617
94.1279768825544
94.1742547224028
94.2171540566992
94.3687456611159
94.4026131659861
94.3569976367978
94.4483000900273
94.5185113325
94.5964703271962
94.7133324660128
94.762394860531
94.8126809608774
94.875455683814
94.9255254882486
94.9551425332615
94.9690326460966
95.0605043394173
95.1167082391018
95.1199110043895
95.1656249489005
95.2603461015513
95.2711857374947
95.3182574065755
95.4070688639945
95.424509469079
95.4197220147253
95.4306388188128
95.4744968619396
95.5150134232812
95.5507764519372
95.5916520126838
95.6163320615714
95.6220192925889
95.6054002524433
95.6271365877821
95.5799792026654
95.5406102819524
95.5585952868584
95.5218765419814
95.4793356333677
95.523804230455
95.5220980968805
95.5137994818484
95.5131709778479
95.4564990121934
95.3252381610236
95.1703645475273
95.0300720990691
94.8654594828094
94.7048259151815
94.5478485250806
94.3532286792429
94.2463155109903
94.3067515228124
94.3949209280993
94.3075123898091
94.0015978417844
93.6292633760514
93.1879282497977
92.6568407126131
92.1966069195937
91.9691917693818
92.0948228062658
92.4570893283646
92.9450405812071
93.3232968556507
93.5418494148345
93.7122029533595
93.9160257677013
94.1655493503897
94.3799174113398
94.5566670591719
94.6857948899131
94.7381363973081
94.8240592486178
94.9655613910619
95.040797642082
94.9905621695656
94.8102928466783
94.5679213477223
94.5000313789205
94.7621184151611
95.3117096944993
95.8127264578851
96.1424376244484
96.3190038047738
96.3885452789196
96.4843945392158
96.5972604396848
96.6604318690747
96.7133561854444
96.7694077031789
96.7995939199789
96.8022979463357
96.847666506298
96.9074981126268
96.9282460425029
96.9894991899183
97.0402534592253
97.0469669406973
97.0803723862126
97.1033933180592
97.1307163383468
97.1516272042175
97.1658770938925
97.1819312011624
97.1806080458914
97.1969267509917
97.2490152365794
97.2315390448296
97.2144210370087
97.2538638277281
97.2604225796342
97.25055378212
97.2945347787613
97.3242745662265
97.3338625506407
97.3467088932012
97.3866597451388
97.4102979983196
97.4319281820463
97.4392982846426
97.456313244767
97.4596730469727
97.4515061725608
97.44760309916
97.4807192874735
97.5314285919904
97.5571574291359
97.5251394605395
97.5195552340307
97.5567139092414
97.5812022807434
97.5852244621742
97.568132442611
97.5642107262384
97.6152444737489
97.6463123367272
97.6691141472333
97.7018644300009
97.7358737841944
97.7700274408586
97.789980628437
97.7957683085818
97.851651214499
97.9060108145702
97.9012668813664
97.9189403786832
97.9906438664506
98.0233056769149
98.0925116267598
98.1589237551911
98.1780819464098
98.1857535740683
98.1918463067993
98.193655746146
98.2254361446442
98.1787339033586
98.0988651166945
98.0692489126271
98.0772892698833
98.0850846273858
98.0906569302688
98.165833337422
98.1983827450332
98.18169634726
98.2123375859573
98.2642053694225
98.3193667795673
98.2674268869873
98.2625078713244
98.3492250720565
98.3154572522099
98.2878269032723
98.3068425965135
98.3048221053505
98.3444078622991
98.3703195124334
98.3857836435889
98.3956228087683
98.3811510194841
98.3808978983134
98.4414616962478
98.4600456322215
98.4484877912095
98.4164227938751
98.4138542839385
98.4100281995856
98.4174127453535
98.3713003219809
98.3568733374585
98.4345196255779
98.4560894408426
98.4620492972546
98.4971637906382
98.4564871475647
98.4257396134028
98.4526396938329
98.4877882182113
98.5179097746219
98.4836962886347
98.4571395608586
98.4764365259277
98.4271082479216
98.4052436184745
98.4193534117686
98.4112787087224
98.4025041756215
98.4340006559013
98.5208888136666
98.5523951997675
98.4830716901058
98.3992973592217
98.3395411172044
98.3713795292602
98.4039004253333
98.4325161419317
98.4707203692375
98.4587811251481
98.4107080719425
98.4066717131728
98.3791801286292
98.3665984394747
98.4334979195164
98.500268281927
98.514570472351
98.524122177684
98.5095117954455
98.5338555688956
98.5973292826267
98.5978819101613
98.5870732912011
98.6525190712032
98.7163185070305
98.7531107290196
98.8146605726673
98.881922938624
98.8776835112462
98.907867616722
99.0275226812988
99.1294312265656
99.1340558575371
99.1303733378787
99.1004280574737
99.168319552209
99.2649566294847
99.2697196103516
99.2134916722773
99.2808712786716
99.398284109026
99.4468827211912
99.4308015266328
99.416611471479
99.5118722365397
99.6596830775231
99.4808439188107
99.3103745560268
99.4765534690243
99.612550596477
99.772901904344
99.9921156267742
100.099191159967
100.102764697286
100.000828248251
100.133359581695
100.350606856851
100.037668653163
99.6081414913663
99.6348570966118
99.5763265128275
99.3466693558171
99.2982425612162
99.2378959577628
99.1335651001776
99.0318154688183
98.9100457112303
98.9076426563617
98.9235054437566
98.912745025288
98.934745642232
98.8881099630688
98.8451277047516
98.8606416765785
98.9568718117419
98.9792832444969
98.974991642011
99.0874390182949
99.1043951549341
99.0394823337016
99.1603629773308
99.291618729928
99.2296641243261
99.1794892952706
99.3725582301869
99.4642616599168
99.4299385241562
99.6146427746114
99.9119061660792
100.056599092112
100.273167505603
100.22482629748
99.9963557218496
99.8818019587774
99.8484255170002
99.8853558182731
99.9938643456656
99.857533812799
99.675408311505
99.6036472073968
99.6215396693075
99.5945826429589
99.7329110816265
99.7965861153379
99.9398036107878
100.003614419291
99.8944614047165
99.7920323585244
99.7858036922781
99.5614113692596
99.4071501312623
99.2897509814385
99.3318693938289
99.3116337287851
99.2960852665735
99.2283668341064
99.1353944779171
99.0345033244136
99.0770234969398
99.1040684789161
99.0880338278013
99.0068533058734
99.0373565657531
99.0925860639046
98.999656560079
98.8473718920661
98.9167663623147
98.9915676580076
99.0060190033666
98.9658566754476
98.8995017983921
98.8593093486404
98.917914037174
98.9107228050424
98.964768570764
98.921841756078
98.8411743831825
98.7811878608406
98.7998004115157
98.80492022034
98.8513660229794
98.9028225751988
98.894008952239
98.7978374633042
98.7523090422585
98.7481403376725
98.7833836980019
98.702041716708
98.6664570916538
98.6205872017805
98.6044347425961
98.5281978702989
98.5014150750988
98.446078330474
98.4243991388313
98.3626105533113
98.252006778444
98.0729110188644
97.9200086340424
97.7141719903042
97.5589224070049
97.0853211211028
96.4004894249937
95.447381361123
94.121823033533
92.8334687992466
92.1364109504639
91.8634663662155
91.620309410146
91.3804514641098
91.3572976396839
91.8646892730698
92.488685861616
92.9471521521642
93.4828946717479
94.1131233051516
94.9068783921724
95.0910949007555
95.2297757789486
95.2786255968207
95.2165025905564
94.3044036543077
93.0813422451402
91.9274426837424
90.1701927116195
86.8359196217334
84.237934636946
81.7127261282353
78.9767184891387
76.1785921641253
73.4897373770633
70.7866421042373
69.2084722018059
68.3180341877154
67.1801117179207
65.8326876593222
64.2926061432211
64.9920549947867
66.5729784730745
66.9627505657605
69.0544239243027
71.7993161046644
74.3801586666574
77.5036823297024
79.1026281680017
80.6611612104399
82.0980369047831
83.223773720702
84.0702382885809
84.9492322447552
85.6223443782412
86.2074257060641
86.4677754226118
87.066531316054
87.6132050307957
87.9340516009939
88.08885129404
87.8613640681731
88.8888138105291
89.6726371409615
89.6228946948128
89.6935975490597
89.9023345439822
91.2539255739413
91.6704081254257
91.8947801321052
92.1268661118406
92.4294122444589
92.8954060977496
93.1947528154823
93.1659442323727
93.1977426550205
93.9768249039467
94.1677771170102
94.1937714566752
94.4705149369226
94.5401743570154
94.7324064326905
94.7031749927292
94.6167489981146
94.5137045524596
94.1985954155187
93.5414708281737
92.9400166211596
92.3786139178888
92.022511857601
91.7522216945247
91.5999228832885
91.7478936223695
91.6257348267943
91.2443869926167
90.8293653188736
90.2877805919365
89.8020129255974
89.4239697426376
89.2210151446637
89.0782904198669
88.6424791351816
88.2155799793838
87.9354441683689
87.7719664257088
87.782952636516
87.816882332601
87.4302158220961
86.7710879145303
85.9157372626908
85.1297034256578
84.7335017808161
84.618621321888
84.5841299165995
85.0801197329499
86.348174850238
87.3320286036987
87.9117086858646
88.2150652689684
88.3463961914667
88.4643474805256
88.66321165025
88.6518389244273
88.4603071407652
88.3082973253792
88.1776620674215
88.0975686028574
88.1040199592221
88.1855054262716
88.2395655468016
88.0815451859806
87.1931156275749
84.6037510938643
79.9447574575718
74.0896954344687
67.9335081087385
62.315610583058
58.5865186801395
58.7533875844744
63.1461366176197
69.066265549615
73.4582538098828
75.8342242315188
76.7791408360934
76.8919472793347
76.5994280949794
76.2468053579578
76.0565997993677
76.1751956397175
76.6836475402273
77.5868462619841
78.8624713316947
80.5205753211988
81.9682484450988
82.6315258750224
83.2143336279554
84.2461649255032
85.6313765650417
87.1490363046291
88.484971573667
89.3478855983146
89.6598172912999
89.5173361873966
89.0355273285256
88.2669736835746
87.244375472875
86.0004661793599
84.7073867123019
83.6996028887451
83.3188701691784
83.646114585954
84.3956234305175
85.1621640245085
85.657091428029
85.6855569079669
85.1909753636306
84.3031258137619
83.2502629842841
82.2108250931258
81.3351561250454
80.7785470815155
80.5739261414146
80.5695209866402
80.5725526863246
80.434313577927
79.9985994493938
79.1433292954946
77.8594655971768
76.2806776744551
74.6107680353538
73.0080602737743
71.5445607623124
70.2667085300376
69.1851027300706
68.3127999710691
67.6367279024681
67.2136240781523
67.131381929984
67.3968106304992
67.9051019234287
68.470579852626
68.8975337378773
69.2187629979676
69.5951916609186
70.0343730880384
70.485457156463
71.0350148869957
71.6833837717541
72.2137362263857
72.3401426421608
72.0859779280187
71.7380658098489
71.5522672930984
71.6612908363672
72.1603232769379
73.0464436432862
74.2388990706302
75.6353931655483
77.0910501880803
78.5658382998593
80.2016287119679
82.0314485912524
83.8432854309454
85.315066355273
86.2498941948218
86.6765567003918
86.7786384525099
86.8802404152867
87.2459060925382
87.7604103754634
88.1019733602336
88.080326549218
87.7020464596989
87.2355052081199
86.9662242979944
86.9044990730823
86.8313945804041
86.5819662535949
86.1408338256197
85.5918794654916
85.0841197679329
84.6017703709493
83.8886356007116
82.780750584407
81.3183174330061
79.627261618407
77.8070695186811
75.9102291267504
73.8829048824348
71.7068058407845
69.5122116467105
67.3606114781892
65.3252564174158
63.57950260826
62.3438489142371
61.7041039926431
61.6738640747385
62.1777946944397
63.2356955516453
64.8042889716242
66.7431621231057
68.9788587548176
71.4221441809815
73.9560291880584
76.4150879289441
78.5787451967395
80.2962244393693
81.6694023771174
82.9138827558041
84.2723243044022
86.372874903649
89.9767570580797
94.2742560083319
95.4499611476843
92.5510541156086
88.3858502364981
84.640394409616
81.4875257867756
79.2904728112578
78.3148839117518
78.2712217761937
79.0592945010242
80.2944481426951
81.0415822900228
80.9432401846035
80.4877176098376
80.1021350641385
79.8522871612686
79.7554369070241
79.4616810795975
78.8777241376241
78.2357971069321
77.4844792518529
76.774722540494
76.3012441248812
76.0952752146507
75.9634307170884
75.6052354656361
75.5112258186304
75.5401665287621
75.4907361300542
76.0561191546421
76.363308986613
76.3330622114493
76.5000938889411
76.4961738683328
76.148111214962
