900
3999.43349933624
648.556783676147
1
128
8
99.8358572729908
99.922472927824
99.9583962661091
99.855997855996
99.8382857948502
99.910289634787
99.8907794664807
99.7822596246279
99.8044296388811
99.9339194215924
99.9717044488286
99.9067834391781
99.8807167782404
99.955575361177
99.9456573201845
99.8804382835032
99.8470290733415
99.9258658857915
99.9692006865666
99.9320438000291
99.9647332369926
100.038085142048
99.9666288729209
99.8731592997419
99.9900762321413
100.281900230293
100.315735928197
100.044066078539
99.972247370348
100.069596664763
100.136682731651
100.126385970137
100.087790209636
100.170385878361
100.275295234047
100.255762656409
100.133354146089
100.151189628788
100.389151261919
100.449971355433
100.095486664178
100.02689368825
100.192357671509
100.255792898407
100.102964264183
100.049595298979
100.060877491557
100.178499617908
100.263085261477
100.107659491359
99.9667679090561
100.016436221303
100.1806630294
100.170094548932
99.9479964353835
99.8545982645572
99.8471319257643
99.8851662792023
99.9600053220832
99.9242372696288
99.8979306740338
99.941770005524
99.9329834742469
99.9483525038248
99.9556190291144
99.9970805479167
100.307434085706
100.516852088136
100.254058569026
100.094608808256
100.207048644145
100.051282818982
99.7436243906031
99.7460891324266
99.7028398248367
99.5951695186622
99.6099002472931
99.5157654831866
99.1150144570487
98.7892595295577
98.5096312908199
98.3090840636612
98.3332688399925
98.2183787146441
97.7798257637665
97.6563549749427
97.7314887505594
97.3877224671939
96.6028397544803
95.8185240662823
95.2454374195617
94.8003043178998
94.337957270316
93.9883659071662
93.3502243331655
92.55986263555
92.0395009893863
91.5967343486877
91.2342144633985
90.8283405819951
90.3263843840599
89.8546267813351
89.4275202118581
89.1062700957811
88.7154052072784
88.2606482527262
87.8263146512289
87.3840509000216
86.9845627415279
86.7217738368577
86.366331084569
85.8122071174965
85.4054337099331
85.104332911623
84.7418181013328
84.3348311065141
83.9532428821365
83.5462710409957
83.123276879888
82.8121227106022
82.4563750392484
81.9949258362659
81.6156600515853
81.2720972684388
80.884079219573
80.4334770261071
80.0679158721516
79.8313535853035
79.4402229697162
79.0285579252806
78.7209619991205
78.3716598769406
78.0065221455072
77.6673037089404
77.3523204495528
76.9679896875622
76.51077242921
76.1319532640797
75.8937298856192
75.6774799520249
75.3824492560677
75.0806256877779
74.7043955030798
74.2686944047948
73.9278294128062
73.7178101619075
73.490453705408
73.2378747132648
73.0101793561616
72.8431460206613
72.734318283001
72.4773216564641
72.1366615850034
71.9314371083984
71.7751781704957
71.6757502639259
71.6125391384984
71.4925137213699
71.3577205786985
71.2905998562279
71.1920762182125
71.0898158049593
71.03401427313
70.9405372570708
70.9579559027066
71.0919993893483
71.1516670008666
71.1957409832288
71.2687124035008
71.3349326039443
71.392048354062
71.4393883349084
71.5256299553364
71.7046237664295
71.8541371001005
71.9793419438443
72.0854941413841
72.2494156170075
72.4411162849492
72.5259914879262
72.6205245722496
72.8150921651288
72.9563960547138
73.0668080146525
73.1397289573313
73.2650424464827
73.472430018898
73.5600966308946
73.5900167242047
73.7294718259765
73.9208232938447
74.0531538367386
74.0929908279391
74.1140198004302
74.1993602820087
74.3485066678346
74.5656520154704
74.7178255512721
74.7326925233639
74.817433425235
74.9506350307426
75.0964772654925
75.304453796567
75.4665529178587
75.5215473163473
75.6884013425361
75.9915739730665
76.2064287459155
76.3933858656331
76.6024208511001
76.793040397871
77.0184655125447
77.2936693243808
77.5919416460838
77.8297146884393
78.1210008471342
78.4344351736047
78.7385835795652
79.0227806278866
79.2640886844068
79.5383480640078
79.8580618020357
80.1515068221869
80.464860548336
80.7756488859577
81.0507841411955
81.3202391741324
81.6772829125899
82.0545716142155
82.3251278393571
82.5789048784958
82.9060442761955
83.1801295887813
83.5038208138519
83.8055566146338
84.0078562536207
84.2315228005317
84.5574014643643
84.9363624215942
85.2540187446653
85.4768175956772
85.6835192370592
85.9981256163115
86.290494579224
86.483904792798
86.7234919048571
86.9767577067265
87.2030802774519
87.471898348991
87.7306352189976
87.9761907766244
88.201979283725
88.385395145329
88.6110856514562
88.8533807782706
89.0594109740905
89.1814800843165
89.3022761182934
89.499184223503
89.7062858560192
89.810132956366
89.8521985029057
89.9450074655981
89.9465849640256
89.9329154155634
90.020532629989
90.107628452951
90.2120809696599
90.372201515955
90.4652175815214
90.5265928637025
90.4655698863413
90.3223305287438
90.1818627602998
90.0199034769979
89.7546804342775
89.4343540231227
89.0301762688728
88.5820347814451
88.228995712789
88.0301270208541
87.9930190206047
87.9245967774156
87.6395998498561
87.0577948838642
86.1888625209372
85.108719852681
83.9584406257614
83.0382778916195
82.7528009788778
83.2122996189691
84.154510583028
85.1570813345745
85.9406618850283
86.5157079473003
86.963341811208
87.4824419525347
88.0163464739147
88.4787059682734
88.9000029590427
89.2159426845243
89.4197374678218
89.5197453302557
89.7066398558434
89.9383904725932
89.8223076498619
89.265621856289
88.6748377957396
88.8001384882024
89.8459776466284
91.1412892395332
92.1859228299423
92.8801099227482
93.269887908483
93.5429263457896
93.7599898923141
93.9477132787971
94.1095533054985
94.2181569753253
94.3724632074632
94.5314473693516
94.6215947567804
94.7570890051382
94.8868204393346
95.0389115344617
95.2086221132768
95.2866257433581
95.3298427933265
95.438266406417
95.5562200225178
95.6024792022868
95.6560563071875
95.7040071066904
95.7436403477649
95.8047689301152
95.8394862603144
95.8994623964888
95.9097114544961
95.9246415179895
95.9587606837949
95.9388521659337
95.943345012829
96.0480647506553
96.1303524379551
96.1827757447557
96.2356706700132
96.29382329614
96.3148520402064
96.3673070943107
96.4711670721605
96.5381257379078
96.5638070089166
96.5844753849478
96.6119267709211
96.7019245369278
96.7998537384597
96.8717005633611
96.8909368889899
96.9342474650847
96.9782739538488
97.0124515953376
97.0564526798711
97.1359845224731
97.2246987038012
97.2849312737905
97.314168874801
97.3916904662572
97.4869208572885
97.579685275424
97.6382013849013
97.6746506546988
97.7977703101803
97.872147051752
97.8342361582673
97.8909156084327
97.9422208547873
97.9809369423448
98.0726370176933
98.2170802400805
98.3076259056011
98.2408020897028
98.1314348692125
98.1753502741839
98.1668194844711
98.1700644270556
98.2095001146477
98.1630762132557
98.0419004436091
98.0187295392085
98.0575152007292
98.0729562430683
98.1201462518268
98.2001212314405
98.2467176481991
98.3599646966093
98.3934179543901
98.4372016980911
98.4924243833427
98.474475543859
98.5041898280329
98.5512384010333
98.5050913023117
98.5549045233953
98.5822868716095
98.6022602994656
98.6804921997562
98.6719295616808
98.6197008394781
98.6235837256209
98.6293998181541
98.6640794341471
98.7103219526355
98.7596434132417
98.6810131562928
98.5832893047878
98.6528172688774
98.7605450530978
98.7354912838488
98.7305032302952
98.8022090577025
98.8227818487883
98.7960416619574
98.786834701379
98.7215410259466
98.7037464857423
98.7109240016406
98.6684713552325
98.6493434653439
98.6593855080377
98.6580046228036
98.6696236373245
98.649659723454
98.6318850618522
98.6773274176619
98.7316148113074
98.7542547704601
98.8311450857228
98.8821542527914
98.9523160707824
98.9330811403255
98.7508113141276
98.6300027725687
98.5892435275302
98.6085998624598
98.654851765478
98.6892411713259
98.7418368868072
98.681242264393
98.5758551257446
98.5011120369028
98.5236356137029
98.6127320682703
98.6737757470274
98.6683201699654
98.6335367517009
98.6526979314142
98.6837719486928
98.6804028847649
98.6906072055234
98.7000386369875
98.7324148949991
98.8276089446582
98.987300842081
99.0874812753144
99.1213319397948
99.1169121384598
99.1194943737587
99.1779338419046
99.2236382646434
99.2017030323135
99.2267892948162
99.3170648879609
99.474206346617
99.4523977118923
99.3760569036716
99.416746854957
99.4110468361606
99.4644235948677
99.6280340417275
99.5537884607008
99.3896122388455
99.5857622165273
99.714625768045
99.549051719607
99.7310484052388
100.014408742766
100.082057741403
100.176268648317
100.290233967401
100.170350332275
100.055786827746
100.186930924197
100.528525622435
100.813378957126
100.498906646771
99.851347963617
99.5780159266188
99.4839464993045
99.2072548628177
99.0277091986806
98.9841469631961
98.7903238392597
98.6087562307818
98.4706947587838
98.4216725938152
98.4533814264528
98.4951161040847
98.5452004709314
98.4935881193888
98.4566897098846
98.5735957433663
98.7103133633133
98.6554777753714
98.5267628172248
98.5819534317902
98.7628464837397
98.8128164422962
98.7925203389044
98.8936451237533
98.9867936661895
99.0247881036203
99.22672289425
99.3809149515225
99.5022476674242
99.8028021928544
100.033532227543
100.004133562054
100.073350354984
100.068162822225
100.026786176837
100.062117914512
100.117333662161
99.9966368828649
99.8976044774761
99.7807210281629
99.5340074411493
99.3527751257787
99.4549313222629
99.5705528920914
99.7589183654752
99.8685362363738
100.129931657641
100.172814975579
99.7945560508029
99.6522496944378
99.6100392411338
99.3581972221974
99.2155588790147
99.1788886669326
99.2796781003478
99.2574536613974
99.3110438091352
99.161365744192
98.9054945898676
98.8427795982747
98.9928513326582
99.0562802897666
99.0866496559981
98.9916616524598
98.8931023222194
98.8278617269765
98.838830920584
98.8274863997506
98.8283295829547
98.8178585982907
98.8382923697907
98.7627841688405
98.7800381841415
98.7877700171415
98.7389981886095
98.7217817237364
98.8322188339585
98.7302885885941
98.620402507377
98.5985491550849
98.5980907095143
98.5813551853363
98.6208507127953
98.5210262555577
98.4486757352072
98.4147240457358
98.4395172448045
98.4065772584811
98.3463457737705
98.2208644306895
98.1933245703662
98.1272540566797
98.0443321201839
97.9389595550148
97.869363932647
97.7232736014022
97.6417051045407
97.4964990309409
97.2810439133785
96.9916232419775
96.7185072107911
96.3826959038198
95.9909388477849
95.2154352122416
94.3248051895662
93.1830954530905
91.5320855398318
89.683875110556
88.0723779927857
86.6142233368449
85.8894952089163
85.8527712353962
86.2949929172544
87.4766195165504
88.6924017685066
89.4089749952523
90.0411999994933
90.6245339705487
91.3010286941052
91.4554923894967
91.4836047441209
91.3821075617519
91.0352985414199
90.0436115382862
88.8167124756355
87.4563459994734
84.747281912282
80.6858038171154
77.4020399589922
73.4268634694771
68.7718343566492
64.467287022646
59.9523426353083
55.8764448165158
52.324696961765
48.3975828189541
45.8013909795037
43.1731316493138
41.0981530555996
39.898009852033
40.158394530846
40.8010597907978
43.2632576689593
46.822070876667
50.3578315948083
54.3357779309194
56.6146537301627
58.6353674554503
60.3289393582471
61.4661800137623
62.1350488064597
62.8745917642153
63.736117775706
64.8173284755179
65.4867026292551
66.4346480041498
67.346337826422
67.9197792441636
68.5253299668293
68.3739948809822
70.4987980682818
73.1622529330622
74.2342526032166
75.3318406182944
76.4420553956563
79.6672556971624
81.2526879351254
82.2890466418222
83.2657969047425
84.1129026075372
85.131983970592
85.8392911726784
85.8830120784083
85.8192679887721
87.1750583277058
87.8307354061972
87.9314859049951
88.2611712421696
88.3047481901879
88.4357305552494
88.3090804842903
87.9973270225685
87.543398857745
86.7292436615268
85.5966695614309
84.4600489792569
83.5049014217118
82.6891445288103
82.4328982401537
82.2754473544598
82.1741882156281
81.6951449136663
80.7335894074792
79.5572948500643
78.4246249620375
77.2487635746654
76.1580353623192
74.9209180563805
73.6762209101103
72.4804960459055
71.4712349131691
70.8797934274204
70.6038495085738
70.3905920827685
70.2270738925544
69.5319086903389
68.4042561903049
67.2239135247027
66.1954646863684
65.6600871599356
65.6961532189023
65.7373770483419
66.135037071562
67.2157219698787
67.9011054184749
68.141566858293
68.4227879283982
68.930677944244
69.7367068818724
70.9753009018101
71.8450139540182
72.1079265708932
72.1563104839494
72.0519436301997
72.0697998604229
72.54815579873
73.3795859690705
74.2006808585312
74.7531434842478
74.2057058656094
71.0120619171333
64.381107299826
55.5493665621212
46.0933560601382
37.2505934623475
30.7099268613917
30.2549418094787
37.4719347424435
47.2230484631294
53.6280178358712
56.5318707725168
57.4083879863384
57.2599281816832
56.700491003175
56.1801661781938
55.9168284409785
56.0809313763636
56.7170190352425
57.7982813606962
59.1588153427442
60.7655564184935
62.5211355622678
64.0576755642503
65.3952995681656
66.8824250404095
68.6087965791637
70.4969583674015
72.2424625179796
73.492815498508
74.0814791008163
74.1305370621483
73.7460528725818
72.8993422600713
71.5808937837812
69.8948762997788
68.069615512456
66.5643092166083
65.8889238202288
66.2256781096336
67.26305640403
68.482066582502
69.3808652031799
69.6612286883696
69.1904088153812
68.0615262489818
66.546607603368
64.8925820124187
63.2873096155662
61.9888529562701
61.1715878731871
60.76617427918
60.4409038569366
59.8811782746907
58.9915248868496
57.781656642932
56.2327028946096
54.4156182350894
52.422944052551
50.379169742268
48.3529085438399
46.4625191405699
44.7705883192236
43.2849379018899
41.9621512359414
40.8500147455016
40.0777993692915
39.8095244683597
39.9950243165615
40.4477156001535
40.8779280335154
41.2035296207263
41.505957729259
41.795283984827
42.0548435405112
42.5582055814843
43.5047209311456
44.5792040763469
45.1378796599631
45.0478104057497
44.6943901447207
44.4658710093434
44.5900667845059
45.3087903155625
46.7425106353084
48.9125529247331
51.6327727864301
54.5791443491269
57.5128357325662
60.5134752865677
63.6682575393117
66.7291430242801
69.2136285628691
70.807187715599
71.4721660152164
71.5798265221157
71.7303587305767
72.2201783520112
72.855431046099
73.2095929481427
73.0217981568814
72.4848854161393
72.0135908325138
71.8778520251421
72.0276908763471
72.1099242888029
71.7424603867655
70.8959366267302
69.8916625240225
69.0093774591507
68.0683746922287
66.7497158857947
64.9191234483325
62.6408269351997
60.1331171630961
57.5080333742338
54.7267454415002
51.8450075159888
48.8940464510167
45.9335991599584
43.0680894707034
40.4620936296723
38.2856116443349
36.7402579728939
35.8779725647869
35.8892168435882
36.9151028167283
39.0185800240287
42.0789327236014
45.6791330076915
49.3024903783713
52.6714074292846
55.7428049620707
58.3457220232975
60.3129662734307
61.7656212579541
62.7938871502007
63.511205922211
64.104430891822
64.6342997110147
65.3906948508668
66.484020430279
66.4178038204343
64.5192979571709
62.0300476342818
59.6033348251365
57.2923069288732
55.5385742935976
54.6651718098137
54.6782899588884
55.6995319617765
56.9269291593667
57.2487689576642
56.7274003370569
55.9874584715352
55.2811899190582
54.7303913758211
54.3713599724301
53.8091605069661
53.0209758646121
52.1473300927269
51.3105116951586
50.5889455773204
49.9400726534274
49.5872584064579
49.4564865884949
49.312863554416
48.8044545140155
48.1168277136927
47.8918329962611
48.3840211469226
48.326819345469
47.3387799395469
46.3485042450626
46.3061618636995
46.3706411349573
