900
3999.43349933624
648.556783676147
1
128
8
97.726884428299
97.7656313383023
97.7714544165203
97.7675138165752
97.7946615515843
97.7902188079587
97.7854154691764
97.7892426872783
97.8248639354277
97.8540513969116
97.8657242235317
97.8745919473707
97.8658743046101
97.8803658036508
97.8818077094824
97.841673018276
97.8647727602658
97.912892605476
97.9472135942937
97.9567645389726
97.9930067575112
98.0310403548497
97.9662481785514
97.9295117518274
97.9829571743678
98.139028917009
98.247553992162
98.0962740343461
98.0065035962662
98.0410513092651
98.1095678348147
98.2015067060942
98.1749202199068
98.1397256880514
98.2677902167161
98.3539840087562
98.2481765751524
98.1447990086842
98.3229583775647
98.5200964484835
98.2286146756311
98.2026998985436
98.377102768085
98.4551870460507
98.3471247754476
98.1790692806673
98.1503285363967
98.333124043804
98.4404006005083
98.2355126093276
98.1187106425711
98.2844059903609
98.4275089493685
98.3338328053109
98.2265077631907
98.1571660358998
98.1460319839472
98.1404685589063
98.1214376283736
98.1742126470677
98.1654113678878
98.1869415160495
98.2672299736457
98.2802934224754
98.2967955264957
98.4166335009615
98.6967797522471
98.8200400202341
98.6002830510913
98.4402397915881
98.4658557126731
98.4841982464145
98.2875276159858
98.150152799431
98.0964778993412
98.0697238368873
98.1238663052481
98.1519644185391
97.9076613414094
97.7248746756659
97.576821033815
97.404418478675
97.3968673966162
97.3025976802906
96.9084706117837
96.7075886569136
96.6476560930195
96.303988126775
95.5860257517172
94.9001283637185
94.4406022972315
94.0185633662147
93.5937388393771
93.2652706186059
92.5994871373592
91.8200497246927
91.2823369859226
90.7696803534158
90.3506151103323
89.9534148507813
89.435937947615
88.9506117782896
88.4331075539884
87.9231338290097
87.5112517465669
87.0131059419429
86.4324706765947
85.9440267894151
85.5320609680351
85.167328466943
84.8055540081397
84.2609325800313
83.6444309217412
83.1933258676396
82.8101579912364
82.3703212337605
82.0185750212105
81.6090346713184
81.1307328312984
80.7418680157428
80.3542995956447
79.9316191898188
79.412856961098
78.9314712966274
78.5224773572542
78.054239038874
77.7008821145889
77.3998929619335
76.9511667865431
76.5258800947674
76.0992728513666
75.7183136696567
75.407419318542
75.0147659999571
74.5675611647506
74.1589309037977
73.8553882340083
73.5138255826232
73.084030344847
72.7648039538539
72.4514311320147
72.1380441314505
71.838922829435
71.4838931672402
71.1382647228717
70.896248640755
70.6254395992369
70.2947435991063
70.0242310044152
69.8583050881159
69.6939324736751
69.4763032856724
69.1618782766981
68.879662886348
68.7048757222379
68.6129259755166
68.5495740053863
68.4586885162279
68.2904446778294
68.2007577111955
68.1665216793311
68.0363042513483
67.9437242499134
67.9440729206113
67.9487932699826
68.0453185963571
68.0886451127039
68.0820491136902
68.1407680700525
68.237573370136
68.3468964769138
68.4339106699012
68.5692901722011
68.7660836921936
68.8497784840929
68.9433947362834
69.0859350936867
69.1968950597765
69.3727247064734
69.571425261046
69.6802934646607
69.8560229030902
70.0569529169001
70.1453688358985
70.1189094628534
70.2074325427806
70.5077943727921
70.677283397119
70.6725821418659
70.8232550111013
71.0188279475551
71.1149910900894
71.1896394257465
71.2842487148665
71.3638384086269
71.5695144274023
71.8444203242222
72.0097461640139
72.074480706339
72.193108458139
72.3728799535885
72.5747274699472
72.8305561535637
73.0990309912664
73.2423677148136
73.4320416324517
73.6665499314476
73.934851531475
74.1862737164653
74.4065398821249
74.6788762636495
75.008500882643
75.3126860258706
75.6506136740085
75.9559357657727
76.253907327246
76.5991004951654
76.9068967877715
77.1771424507635
77.5309800721234
77.9011583463611
78.2601805584015
78.6031813143558
78.9348030869309
79.2637077038347
79.5960333012002
79.8820846941456
80.2501341036594
80.63063847465
80.9131622279001
81.1812078403411
81.5163349718565
81.8371033888092
82.1471826560803
82.4029881908169
82.6390847658093
82.9565807547958
83.3297272758531
83.610666025966
83.846518103391
84.0691670820579
84.3189648956481
84.5671200979428
84.7528027184905
84.9831081612497
85.235796791013
85.4763906810556
85.7493646484657
85.9648652820491
86.142919188536
86.3469103599031
86.5584445647121
86.721147416339
86.9365049366031
87.1826690603696
87.3682521998718
87.5422515894394
87.7251438514179
87.8691591061271
88.0816471672844
88.2463333342167
88.3739241838505
88.5509241431817
88.638498642218
88.775210378063
88.9434900886962
89.026592622005
89.0995507180152
89.1820896416303
89.2486457976653
89.2614180311141
89.2088648601894
89.0705797820476
88.9317572781605
88.8194137010133
88.6998287152607
88.5307629113851
88.3103293822409
88.1722171158306
88.0858798309049
88.0546416231929
88.1829481666792
88.3084769295013
88.2077495313977
87.9376868059991
87.5972066125648
87.2104047079842
86.8025370827568
86.34054626803
85.9383305650462
85.739599439431
86.0649963802863
86.8744739848707
87.5741920778709
88.0393942652213
88.409631639125
88.7495053796652
89.0966920836704
89.3716167319798
89.6214961451006
89.8353387521265
89.9961300306561
90.2063356587272
90.423302663865
90.6573959289969
90.8559942013766
90.8437994806778
90.5523323142538
90.2445518012382
90.5320310118652
91.3556626947318
92.1063444807512
92.5874015455479
92.866932866585
93.0259192329576
93.1484747582011
93.2933974483181
93.3999348394468
93.4643861342163
93.5591062683629
93.6721498056611
93.7456373070788
93.8790527746737
94.00320520998
94.0854270139447
94.1963150146113
94.2858757500199
94.3166527172528
94.391981552059
94.496224970219
94.5789882550536
94.6029037240303
94.6280969351624
94.6813469309085
94.7005583103465
94.7405690774979
94.8307556779507
94.8451349826736
94.8620203229193
94.9266874588843
94.9255273979745
94.9396016456149
95.0442212272683
95.1208252818551
95.158049348808
95.1988085397156
95.2508953245393
95.3016705719296
95.3584461867093
95.4138710107007
95.4465437038737
95.4602978232705
95.4980611904366
95.5260274205509
95.6083454514945
95.6712113636215
95.7045448476191
95.7497408854621
95.7880680950577
95.8147188113754
95.8657560415032
95.9161080688214
95.9621438168766
96.0091447263362
96.0637618874639
96.1435889714617
96.2336525126542
96.2636805345933
96.3005514466853
96.3835256236246
96.4548381133976
96.478676356393
96.5359918026227
96.6281498881536
96.6923423730447
96.6978230133066
96.7296763427734
96.8071853948049
96.9095228250558
96.9708811397743
96.951387683839
96.9456342853494
96.9722580135665
96.933594410451
96.9403875449357
96.961809669998
96.9207139130462
96.8713808997812
96.8815426487562
96.870023644531
96.8581745685655
96.9408693982236
97.0194409992438
97.060590000954
97.1500355203804
97.2020917007072
97.2177472185982
97.2294499956943
97.2431456122486
97.3116727960717
97.3371583338387
97.3094842152211
97.2914737538528
97.2754314844012
97.3450751110525
97.3377510765235
97.3100540725407
97.3505469894606
97.3877803431553
97.4128061784358
97.4512493487493
97.4466049171243
97.4235048539306
97.3926518016543
97.3886913184844
97.3589169655385
97.365098476446
97.4199419945474
97.4599504445979
97.4684620825725
97.456255344298
97.4732919198461
97.4866804564085
97.479743393109
97.4308395275612
97.3670653278477
97.3863912376966
97.4154868444762
97.3646851239522
97.3712558334918
97.3910251662617
97.3325359546299
97.3345345090771
97.3681420324036
97.41041468304
97.4396645577909
97.4650050357581
97.4619905171769
97.4202410178211
97.3577518126147
97.3106710916047
97.2610942134071
97.2107417682485
97.2315879031944
97.2817720301554
97.2986743098187
97.3139184507864
97.2802565465846
97.2275930704079
97.1959392218541
97.2209235435711
97.30683175068
97.3912568322703
97.4025965958722
97.4292294925067
97.4694154748281
97.4524958397867
97.4460465879742
97.4507573272542
97.5288681686832
97.7177837890934
97.8219996115519
97.8315881138241
97.8999208128099
98.0050836537878
98.0408982956207
98.0789445095855
98.0880906239767
98.1776580389263
98.2304236581385
98.1965474107001
98.2235581886069
98.255774117824
98.2394607662413
98.2772585856762
98.3385961080172
98.4426418543413
98.4985334676525
98.4657801699685
98.4326654534293
98.5844384077674
98.7123451630782
98.702592436776
98.6839703558737
98.7193553743058
98.9639065749012
99.3025881795373
99.1868544177042
99.013222139361
99.1594290682102
99.2320577702309
99.3302487917347
99.6144784146976
100.002972749426
99.7825789701994
98.8358446337199
98.5242452853264
98.6195705456333
98.2697026345646
97.9261534701698
97.8633441831102
97.7979268349405
97.6338153198542
97.469703552626
97.4454295146604
97.5641779950486
97.6686356733208
97.59830740151
97.5076086530504
97.5173075619701
97.5296378519633
97.6266897975535
97.6881162745096
97.6207533268016
97.634757400074
97.7444323380039
97.8083567311412
97.9069527770748
98.0603309989312
98.1271621671628
98.1208586016377
98.2999933444776
98.5140521171178
98.7698986125367
98.9708675974442
99.1341747410724
99.312028163418
99.3583291513596
99.2608268748725
99.3796206614927
99.2594329179205
99.0942039884033
99.2260394855936
99.3189954886397
99.2222831175995
99.1326550095238
98.8311063108531
98.7592724281854
99.0026048417047
99.2751990113839
99.2716633328229
99.3508507309057
99.3228921578903
99.3226928645245
99.2187332143371
99.1059653915885
98.9842741453288
98.8430732122457
98.713868878356
98.6991364055591
98.7097347130131
98.6507055429437
98.4655869405093
98.4263988490074
98.4276135010562
98.4842045859306
98.3716006997377
98.3363718147063
98.2675241320413
98.1656604790323
98.1563929749466
98.2600638209669
98.221912348397
98.1992005728663
98.2104598705626
98.1799690431777
98.091539834735
98.1330697617113
98.1456580484441
98.1283755322323
98.0768976287948
98.1342344897539
98.0595797540429
97.9855097747523
97.979816938667
98.0108670664174
97.9664689212863
98.0279870515945
97.9964974315826
97.898716405046
97.8311920612869
97.8666788743594
97.8487593150755
97.7637318733924
97.6719720324273
97.6958874933446
97.6299113510958
97.505327140155
97.3761392663334
97.3342290929674
97.2304342153675
97.1725734005701
97.0328783830609
96.8318969413116
96.6031493287464
96.3529581023253
96.0380960361826
95.7278885853789
94.9716764519931
94.0902053809157
92.9470969911551
91.483983061602
90.2150015955061
89.4305477858678
88.8739491406438
88.5232454131633
88.257815923149
88.1708743958717
88.3929076498304
88.9571119176484
89.4555648487421
89.9190780993924
90.3435359437282
90.7910095320358
90.7636240334688
90.621990186197
90.3035385893127
89.6748421305053
88.2058048771779
86.6089470694942
84.8968079142514
81.8769931778217
77.7788846101805
74.6115569016468
70.8532267250178
66.5469463285504
62.6044989139899
58.6355153086613
55.1111570295391
51.9839079796759
48.5350203332435
46.3604707961948
44.2112327762039
42.5586107536322
41.7992787670107
42.4623532874821
43.39879950182
45.974923960237
49.448482016485
52.889012834882
56.6493608238298
58.8469220452999
60.7672453633194
62.3144360486469
63.3432071100527
64.0106226009256
64.7142249442117
65.3985763501205
66.0730517194978
66.2752933765152
66.7000515559558
67.2397302375443
67.8187637581402
68.4112351692417
68.2887287321853
70.007615421247
71.8527649452005
72.4137247901528
72.9837629455921
73.4482937148974
75.4978925900942
76.7163701199607
77.8872518497623
79.0030143721461
79.9321432762709
81.057897706648
82.021749391887
82.4400160809287
82.7213379989747
84.3342848957785
85.0794718110211
85.3582690360872
85.9489288834133
86.1593148093192
86.5260702514675
86.4959226675857
86.1396026719373
85.6360144013883
85.0250428212688
84.3022634663296
83.6048125048917
82.9483022794807
82.2936656768951
82.001386067235
81.7691428408576
81.6207941938566
81.1905689766485
80.3721670573085
79.3422544665999
78.3387523892341
77.2837221712925
76.2677006247705
75.228894220556
74.1796719696032
73.0293431112534
71.9441625853123
71.1869833541237
70.7591629471689
70.5270680484606
70.4758649577188
69.995091595658
69.2199209327411
68.4349436984907
67.7620229142296
67.471184830344
67.5480488179381
67.6935792938805
68.294694155859
69.6006940567718
70.5050907360059
70.9603038039172
71.341055669266
71.8006311468321
72.441987335566
73.3650575113788
73.9824971635556
74.1810263418418
74.3230105644195
74.3690190353212
74.4644860176198
74.8691341594752
75.5213506654707
76.1426823165279
76.4683923724668
75.7115456584211
72.4591938030954
66.0979291112379
57.8034122237232
48.9274413807549
40.6948504160673
35.067197985813
35.7246098185813
43.5039309501069
52.7888571452413
58.218053538554
60.1911879331264
60.4258188993605
59.9112681188251
59.1165392227909
58.3935847437692
57.9721248399727
58.041281837504
58.6435041035864
59.7219401126046
61.0866214338822
62.6390115707973
64.3261525568748
66.1316000558073
67.9774606826959
69.90115170157
71.9454598843867
74.0119316082231
75.8182699740212
77.078578624228
77.7044256852622
77.7966141146919
77.4283908849402
76.6284351518554
75.4400146093879
73.9407255415611
72.375650240005
71.1742188127906
70.7769582096504
71.2796641679723
72.3086136691984
73.3426765662276
73.986746924517
73.9714224647126
73.1996858460571
71.8745846170774
70.3176671764863
68.7624954355252
67.3795681632947
66.3188083758322
65.6106360391662
65.1530885858403
64.7341272592957
64.1482140973262
63.2473207039751
61.93157563937
60.1855451692221
58.1205495799477
55.8904515393666
53.6814073944473
51.6265775001272
49.7909998496595
48.1467931157641
46.6992302536071
45.4247253912001
44.390622538475
43.733724228954
43.5920970408898
43.9178560809973
44.4584918654571
44.8939658691499
45.2470295436827
45.7251519468663
46.416956997184
47.2810606448375
48.4385588922304
49.9236085148945
51.3174457799535
52.0456413867915
52.1427067956265
52.0779215371143
52.246703368549
52.8187448167208
53.948193428144
55.7009266672482
58.0241499636819
60.6967521783668
63.4385488690865
66.0962343712762
68.7458652843236
71.439771978805
73.9571627693237
75.8919224221244
77.0258780202849
77.3953563891448
77.3320402191546
77.3759800234234
77.7546840386442
78.2016500393057
78.3574829266241
78.0650783825003
77.4831123337255
76.9363465140944
76.6940458796863
76.7391896661723
76.7135605700118
76.2902979667782
75.501887135216
74.6212096834028
73.8198726473372
72.9366474900928
71.6843635312628
69.9436874768586
67.7907447940806
65.3792717573564
62.8861274552122
60.3272429383599
57.7001058872971
54.9677866176171
52.1022970245257
49.2230856145065
46.5983915326733
44.4530818560287
42.9625433883999
42.2363463239445
42.3883343429318
43.4793014469565
45.59580542036
48.6085986678014
52.0325442025942
55.4412233649589
58.6860789905929
61.5386325752106
63.7640720269492
65.3187366877635
66.2849055425808
66.8094770196934
67.0613101038601
67.1875226961501
67.2916715764409
67.3212774600714
67.194076509757
66.7921634572353
66.0506055046849
64.8401178155699
63.0473466465241
61.0550058019736
59.5011220291581
58.6883277147829
58.6442054205701
59.4054325406186
60.4056899348641
60.6952107390751
60.1567265036568
59.4064681426509
58.8146568049234
58.301365167688
57.8446247323504
57.3035208267106
56.6043929601999
55.6762305934148
54.6614029575171
54.0419747988094
53.6186391216736
53.0007272924091
52.5162236035075
52.1921681788218
51.7356668226367
51.4825212163099
51.4417789393151
51.5067156760248
51.4045132548941
50.9036713306751
50.2651296261049
50.230556361974
50.0359082142983
