900
3999.43349933624
648.556783676147
1
128
8
96.4134816513914
96.4078760501514
96.4251861132518
96.4975967581009
96.5309526080675
96.4942809066544
96.4243269647418
96.4398770199337
96.5273300170352
96.5625393001107
96.4970164673053
96.4744386265985
96.4826033548277
96.4998837598683
96.5472515995948
96.5417994305857
96.5249068848863
96.5744797993985
96.6021811410619
96.6259643411037
96.6245492833095
96.5949989739746
96.5773895560354
96.5945122347528
96.647303774232
96.7251115829687
96.8004598444907
96.7193576811861
96.6546281966719
96.7503711796686
96.8008701248139
96.7516160398254
96.7260640442029
96.738736662398
96.8616454645208
96.8823829656274
96.7479316643259
96.7706591733403
96.9686065544199
96.9947359219744
96.8253757635904
96.8024646316278
96.9045853251332
97.0046355642917
96.8616592437006
96.8086112551186
96.914678568821
97.0084489382281
97.0207387575453
96.8945905272251
96.8321952337686
96.8971860535729
97.0010962657397
97.0690187415575
97.0070284563021
96.9022784524652
96.8694242967432
96.8732654984847
96.8962120643705
96.9140149443044
96.9163422116547
96.9748807321312
97.0714312624489
97.0631008203625
97.0177867037264
97.0736721806324
97.1846242861223
97.3086403586731
97.3231958284443
97.1577324700167
97.2068843913968
97.3351569029739
97.179577653403
97.0843361243777
97.0907129406675
97.1241117285074
97.2005737878067
97.2065887823605
97.0722898135408
97.0884494774935
97.1301627546188
97.0201946564282
97.0194680843533
97.115629659026
96.8907556365494
96.7076643426274
96.7535071262498
96.8295399218446
96.6463145235299
96.3008744435747
95.9649753437484
95.7082516642119
95.5577974502241
95.5887120001076
95.5959133588438
95.1771134572836
94.8097601480959
94.6431049706691
94.524148427431
94.4489842153567
94.2692671177808
93.9678622408743
93.8325088612492
93.7642987134607
93.6305176432939
93.4893320607009
93.23385263313
92.9378956660697
92.7206075829454
92.5434054929896
92.4278303882329
92.3640951391992
92.1581579049951
91.9032209749915
91.6600428486316
91.5078819564148
91.5245192585717
91.3463820066735
91.0156987833418
90.7634426931428
90.6158923867404
90.6766717651399
90.6263322987692
90.2409790559202
89.9799751985719
89.8303450669601
89.7279604297543
89.6930535356495
89.5290227771096
89.3126207139411
89.2034852816861
89.0899881188176
88.8682231213908
88.6996497691918
88.5591679626184
88.3385416251579
88.1476830326557
87.999160493575
87.8569591541319
87.7259678331831
87.6339958731632
87.5227899578558
87.3250449685684
87.1534914787157
87.0021223121493
86.8955829923406
86.7997312109123
86.7167239240082
86.6605894714153
86.598724308734
86.4988979839214
86.2898446215615
86.1695521482762
86.1616903457158
86.1499273386668
86.1479744224138
86.0402837174971
85.9196293832041
85.8310668951402
85.8630201181686
85.9523208502635
85.8816366747364
85.801344155645
85.8089911747244
85.8444509065247
85.9023478685076
85.9278710502313
85.9396895577124
85.9716265820736
86.05215788694
86.1383814591634
86.1923424456642
86.2399474306596
86.3033558631298
86.3699449482865
86.4572888117046
86.4887843219493
86.5614368298857
86.7057797114178
86.7879812154862
86.8451044815971
87.0064835574815
87.1212236641314
87.0833833428591
87.0155639393238
87.0759272996145
87.2591079523147
87.3682675631784
87.3702576443575
87.4424321051959
87.5894619548895
87.646665497011
87.6562528751192
87.6817973616922
87.6870734179693
87.8150486778039
87.9782444733016
88.017822333408
88.0053834672933
88.0473240606594
88.1613290202726
88.147313638756
88.1667343252391
88.3075673361092
88.3843226884772
88.5095841205484
88.6278407047915
88.6430257229887
88.7376118602965
88.8679564454603
88.9628194363326
89.113335833186
89.2015601158923
89.2645019500387
89.3859344169941
89.4753039426948
89.5809683670208
89.723961515264
89.8605712606492
89.9460092030801
90.0308297900295
90.1461134873923
90.3076611496989
90.431315676018
90.5051534543025
90.6198700765814
90.7357397114717
90.8632194190295
90.9870220838478
91.0590197184504
91.1257512840135
91.2671994746628
91.4152292711071
91.490874600512
91.4892338907925
91.5714407786543
91.7237263085503
91.8960789830646
91.9958932964083
92.0360595104588
92.0873360222583
92.1900964316122
92.302740073494
92.3794599355278
92.4512649934348
92.5380371161482
92.6113354018982
92.6913148997373
92.7798474000575
92.8564804161119
92.9594489835294
93.0182749336975
93.0270375824919
93.1205220017396
93.1947998405687
93.2351440892325
93.2869792383217
93.3765350913029
93.4009719106321
93.3903596506632
93.4558198300485
93.5080772477265
93.5363993852253
93.5613458657309
93.5764495390364
93.5891797151733
93.6199044951112
93.640806296233
93.6408235085626
93.6437918130037
93.6521969882564
93.6095990573168
93.5430293799868
93.4777174305869
93.4104223239961
93.345687911811
93.2687982736
93.1916389385627
93.1215493993158
93.1032534918922
93.0927940080426
93.1052556042761
93.1479712379203
93.1269203741712
93.0015790012945
92.850059598097
92.7098972366049
92.5816267001477
92.4386015933415
92.3219801846641
92.3207779679257
92.431973650785
92.5371250894289
92.6173341705067
92.7263700134932
92.8178841862926
92.9257542923049
93.0528356211766
93.1506571906767
93.2678316809335
93.3837138848483
93.4336037311703
93.5472847749843
93.686563154554
93.8182846587047
93.941474379039
94.0428407149474
94.0598740360116
94.0966153012668
94.2802501517971
94.4735023502751
94.6404327504808
94.7963923710939
94.9002794804747
94.9624047243876
94.9902874868186
95.0281618011427
95.1149528449655
95.185196298391
95.2221658622873
95.2471466723727
95.2669012188354
95.3069575126881
95.3701480082315
95.4046503496128
95.4392410763251
95.5122997214979
95.5418031631395
95.5564350617242
95.6005593659565
95.6445859770883
95.6479973147323
95.6588098436494
95.6881178933882
95.6963686191992
95.696991447515
95.7500892703953
95.7607313189455
95.7715916291036
95.7840312540064
95.7871287908557
95.7925628583985
95.7951194028912
95.8140992082642
95.8553242919544
95.8749885837706
95.8926588146254
95.916898235236
95.9488849861322
95.966783593562
95.9963117558426
96.0210420129268
96.0419219519372
96.0564071278852
96.0789539327431
96.078284893748
96.0995823800167
96.1374988094613
96.1675646654614
96.1644536453911
96.1423756361455
96.168814033586
96.2041057927854
96.2130697792828
96.2448116703422
96.288576982479
96.3513852069765
96.3847217077065
96.4274903163862
96.4889396193444
96.4442149655686
96.4465942673123
96.510983268847
96.6011303645795
96.677149858425
96.645102299203
96.6605134436099
96.7634256161279
96.8174973606046
96.8394057887479
96.8899067714774
96.8787236165498
96.8317936983067
96.8244505363263
96.8693320290444
96.8485068691822
96.8275577144399
96.8192886763474
96.8289913049335
96.8129340684079
96.8209125956487
96.8496122713674
96.7994909622525
96.8327796907628
96.9551259641391
97.0037794631521
96.9791332863741
97.0109364911243
97.0492770876553
97.0867481469035
97.0842082993086
97.0115182683591
97.0382089570895
97.102081147252
97.0935407312191
97.0480560873647
97.0612715138888
97.0881398888871
97.084978829799
97.10436427482
97.1570764472561
97.1613926857302
97.1656604417819
97.1437666577446
97.1107969757504
97.1148248462046
97.1408880078214
97.176857714747
97.2012373749505
97.217323625597
97.2091192247403
97.1630713609347
97.1950882112145
97.2021956676682
97.1468947759359
97.1910883766631
97.2122415119504
97.1710710624992
97.1957250500356
97.2041803056323
97.1789798256289
97.1509175075807
97.1350082998788
97.1105756475726
97.1008115586798
97.1279131801963
97.1901018172905
97.1698609349881
97.1196007825563
97.094911357136
97.1104131121706
97.1445677554757
97.1575604818386
97.0913958145552
97.0680849272093
97.1387377330366
97.1641214642876
97.1471914889754
97.1519997864677
97.139251308753
97.1477563579833
97.1915015608731
97.2098482610164
97.2494920105434
97.3101510942311
97.3407501995064
97.3360432825802
97.3298240910581
97.351731588185
97.3890392178649
97.4613315389768
97.5156506394407
97.5986833671987
97.670904676698
97.6377490874164
97.6053465563207
97.7872382421267
98.0041155199298
97.9874715483528
97.9485819409693
97.9724268325821
97.94008276474
97.9325256089965
98.0094406672768
98.1031357323853
98.1125583385799
98.1363097804798
98.1382154005243
98.2354570428178
98.4042901435003
98.3667550349481
98.3042635505929
98.4233195499814
98.6265467269648
98.6707137533292
98.5195674619455
98.6485590312036
98.9173571417258
98.7858145346972
98.7857466994184
99.0205846579129
99.0610117846959
99.1649429513599
99.2141638139326
99.0936382306046
98.766624416287
98.3811130934618
98.212497785049
98.2331663159631
98.2497371279604
98.2140483383844
98.0994673220668
97.8981450442209
97.8152970244034
97.7644824624733
97.6659878853151
97.7324766413908
97.7906393019701
97.6915233644585
97.7092528937517
97.7868747613035
97.8014415514791
97.7552567969296
97.7645440926105
97.8745575465011
97.9773195128195
97.9815229594061
97.9390486326347
98.0067574239931
98.1534889870619
98.1043525483066
98.134929290393
98.3902251366733
98.6606218615126
98.6998829996442
98.6421563477003
98.7281094104246
98.9390792737984
99.1128413123268
99.1586038672262
99.0833095745001
99.2233272996954
99.0022548546799
98.5678805982072
98.6684292853568
98.948578810171
98.7523040032168
98.5565537357437
98.5928444636403
98.7372706083848
98.7992735063891
98.9175274468264
99.0567582778159
99.0314363800398
98.7899557537406
98.554702461758
98.2942815057139
98.4004449712128
98.5126363842584
98.3471273209075
98.2329200235805
98.3433506729662
98.2253020428667
98.135357664894
98.2099224147884
98.2916862255547
98.15599632565
98.0374903195581
98.0511962597536
98.0388790822104
97.9342078929179
98.0532732343492
98.1363315228186
98.1241688637233
98.083936109218
98.0738717679847
98.044077224857
98.0271731160926
98.0033719765297
98.0074410300674
98.0208724281209
98.0913138839721
98.0809372647857
98.0662601290757
98.021665053625
97.9782409035924
97.9579408810111
97.9799289350321
97.9435176913026
97.9616127372268
97.9492180346155
97.9469022054884
97.9289429074732
97.942042615382
97.8874493353986
97.8768263949239
97.8470080612863
97.8387204509485
97.802733504186
97.7928972741494
97.7288298470481
97.6838592976312
97.6385975188877
97.5199147712674
97.3267291718681
97.2354524935359
97.0727518065017
96.8628828190878
96.464498308804
95.9295209485945
95.1513953002089
94.1098347096029
93.1092277586645
92.5325045470279
92.3038684736859
92.1606284069825
91.996467924148
91.9261517782464
92.319278438948
92.8918467621104
93.27676881296
93.7028301612914
94.1598696386141
94.8029517252087
94.9358854748631
95.0120435160092
95.0262864071141
94.9456891772703
94.1454868136888
93.0483602855737
91.9607197773511
90.1327173881396
86.964903061506
84.4366940630817
81.7285992067945
78.7582548823654
75.8290123986669
72.9935370153288
70.2318586578262
68.2428788468804
66.7489123923909
65.5048946999402
64.1491773787
62.7209613876512
63.2635018776871
64.8899735355249
65.63109276152
68.0476010536349
71.0462244180893
73.743243342426
76.7148266457064
78.1942330773366
79.6143954072621
80.8584175978693
81.8312715471353
82.5924501584955
83.4069763263123
84.0864882862719
84.7041785905816
84.9958016740955
85.5738584970105
86.0956857609387
86.4588693510665
86.762990633013
86.6783675364098
87.7416318940991
88.7038189604209
88.9381395239326
89.2685150977367
89.6228717078158
90.8315898201886
91.2627936245447
91.5944297170873
91.9354576996782
92.2693802776662
92.6728782720329
92.8625912856991
92.6867655866537
92.5719101193674
93.3073375911221
93.6160590364488
93.6640756149412
93.8773769139649
93.9180464656842
94.0173928492761
93.9267886589392
93.7767346380908
93.5986976113393
93.4254571911524
93.0161339548099
92.5383617722741
92.0017715332233
91.5468530159439
91.2341869854699
91.0378930330259
91.0429547813682
90.8380938571175
90.3958254273393
89.8095573918713
89.0914915019939
88.4379339171744
87.9256936283546
87.5315096596947
87.1762873327497
86.6698896164681
86.2499009119129
86.0311245096241
85.9097398456152
85.8567425592082
85.8025290917943
85.3906595620026
84.7316701831983
83.9367826567706
83.1821465012433
82.7514020098796
82.601853606579
82.4958558550836
82.8342801414422
83.8660273653306
84.5989822469421
85.0072599955154
85.311296951565
85.5705517775314
85.8851841750477
86.3225219094404
86.5299286662953
86.557972467182
86.6049086483727
86.6601374743261
86.7827916716329
86.9581419199136
87.1351963386496
87.2359082701351
87.1306769642836
86.2645118303207
83.6441473729408
78.7528898404871
72.3791315123268
65.4991532892144
59.1249612704386
55.0006193095264
55.8301077521232
61.7061961775065
68.4503268350295
72.6408614452136
74.5616569625123
75.1591046606119
75.0326847618724
74.6113377314684
74.2147276810571
74.0325284903219
74.1870243472046
74.7030134206217
75.5009944258777
76.2939554112744
76.9915241274445
78.0484687394866
79.5925268746875
81.1145865437648
82.5639597511256
84.0993663289602
85.6570164387206
86.9730705281085
87.7950229752321
88.1084019795297
88.0547031705378
87.7072612467424
87.0717893876102
86.1636764575301
85.016137520275
83.7833163660539
82.8126201536297
82.4713891954401
82.8182999984109
83.551878608977
84.2740565813859
84.700715090009
84.6475553511324
84.0874291808158
83.1389162442907
82.0206897027654
80.9250422353517
79.9965346448826
79.3718035911963
79.0729088823906
78.97598610389
78.9042183477821
78.6925397673151
78.2002176196358
77.3337978057626
76.0692656967644
74.5058912290605
72.8257999619474
71.2127502487521
69.7592512151427
68.4949460544836
67.4148430709912
66.5506095236127
65.9177500846087
65.5626632063269
65.563525613451
65.9959231988045
66.7406213470898
67.5083471065279
68.042958239184
68.4170913951137
68.8431240858353
69.370624446373
69.8759557038257
70.4495462340783
71.1549155057533
71.7356116962577
71.8888742555152
71.6689433341314
71.3802054411167
71.3171662965985
71.594474979967
72.2559477489542
73.3078598525332
74.6848852167662
76.2128310143073
77.7370055916847
79.2412845910855
80.8257424905526
82.5018113571796
84.0662104389129
85.2563676059814
85.9669366402032
86.1974552716744
86.172239790641
86.2744405404171
86.6308451978505
87.0752398771785
87.3418326838299
87.2638607303761
86.899004451865
86.460567977923
86.1990363424202
86.2092466903727
86.2258689802031
85.9493199348437
85.4390986471642
84.8607911107217
84.2991498400996
83.7281712484021
82.9316946037688
81.7416119014971
80.1985063894155
78.4354599384935
76.5387489979783
74.5608774777272
72.4834711971211
70.2221357765542
67.8456292588477
65.5563510527221
63.5164248715856
61.7909639571434
60.5787932004034
60.0663138570099
60.2649804087754
61.1646490996426
62.7973834430338
65.016635345914
67.5009806774625
70.0056734951078
72.5111786941659
74.8549450169553
76.8725994931423
78.485262181935
79.6340298398267
80.4481003666784
80.9953767653316
81.1727012808032
80.630597066262
79.1466654837819
77.3311296574931
76.9266714570923
78.1207181794072
79.1364260948789
78.8447864290236
77.4497760848292
76.2443706258922
75.8937934577707
76.0775822136713
76.9466020671819
78.1718608296339
78.6492209382819
78.3824282611683
77.9889008244366
77.6267684206086
77.2906739160215
77.0044697508092
76.7255631227137
76.1931699574105
75.3048058715808
74.4876210750589
73.9163072590609
73.479319328532
73.2167785718313
72.9992604269595
72.7123128034231
72.4685427323664
72.4938902803672
72.4912107201364
72.7291767675802
72.8806158725865
72.683895277195
72.589284208808
72.5707649877451
72.9587225668024
