900
3999.43349933624
648.556783676147
1
128
8
98.224977986082
98.1648807083917
98.1550454350509
98.1644336474889
98.1564671877521
98.1701512309145
98.1490146312931
98.1823484467286
98.1904288350895
98.1686867658315
98.2319366870427
98.2352698871932
98.1981836099357
98.2100177857916
98.2205293534047
98.2231274126839
98.214970608997
98.2413768365382
98.2501996596231
98.2660938525473
98.3654373515323
98.4380114535335
98.362892867957
98.2700733732882
98.3330327088826
98.4994189252188
98.5743426453775
98.435859789305
98.3750446845424
98.4673949896678
98.5387142732728
98.5441247896434
98.4912461810614
98.4981067499228
98.5896154072165
98.580275727369
98.532683463908
98.5457522819083
98.6779224610942
98.8213949036223
98.5470173039534
98.4795731723956
98.6920410104555
98.8247592517649
98.6469937828513
98.4861380358546
98.5295533592165
98.6791033145775
98.7438908383888
98.5628913343034
98.442276978919
98.5303191885051
98.6685698017345
98.691998367602
98.5609323306667
98.4412152391071
98.4375335551269
98.4535950122333
98.443952103794
98.4440124304109
98.4631525759569
98.5420921173375
98.5366639616979
98.4876327110984
98.5600127692591
98.7532785768854
99.0348078030784
99.1540064774459
98.9568117810022
98.7822052672545
98.8175162950284
98.7871035709946
98.5378533910847
98.470420232227
98.4596293350179
98.3708235165443
98.4026887169096
98.3790904101157
98.0307703725455
97.7576151044204
97.4759194001138
97.2519695046191
97.2964659973197
97.4092546503584
97.1615205342989
97.0417701150136
97.1398012190099
96.9740439321018
96.361763122059
95.658703033691
95.2016204052862
94.9003843738399
94.6311030637088
94.4715791089454
93.8755738431529
93.039796061392
92.5415747109024
92.1799251508439
92.0159413539618
91.73760116236
91.1028368467473
90.6509483275687
90.3023178180037
89.927846008157
89.4924340150835
88.9714071440798
88.5601215157366
88.1930923502829
87.7444397440252
87.3417300478318
87.0059175980527
86.726984241749
86.2439281590058
85.6430815944221
85.3554986217554
85.195392134775
84.8262335338241
84.3937348620838
83.9196872175725
83.4211323595812
83.1227739070965
82.8614423336227
82.4134424415207
81.9127730413243
81.4916164883743
81.1962069877833
80.891426370084
80.5446854052407
80.1419416190145
79.7551732280423
79.4503533138798
79.1309750803802
78.823337800559
78.5018734474507
78.0706498448114
77.6608277784581
77.418505281459
77.2161094125262
76.9446265091353
76.641192588925
76.3634810810948
76.184951750329
75.8517354202195
75.4296771815744
75.2058220656394
75.0311108345644
74.7958181855774
74.6065132931029
74.3451025301033
74.0947391332683
73.9575965826854
73.7378479700977
73.4731200222464
73.2545662586508
73.0702887718594
72.9476965562953
72.8414224804465
72.7096383545317
72.4878036865602
72.3511154039111
72.3440481278363
72.2661609285835
72.1148833405675
72.0054678857668
71.9866772689808
72.0092933129344
71.9699293432065
71.9649250381594
71.9628820141545
71.9672621968643
72.1052817299754
72.1656870001242
72.1090543772502
72.1672168225797
72.2491900304808
72.268074480082
72.331142827167
72.4685004694721
72.5521199770431
72.5466401875633
72.5645425787462
72.6966506508489
72.7598510887378
72.7592439920546
72.7254438105991
72.7806178423766
72.9110593501649
72.9082216391414
72.8694742030464
72.9589928944296
73.1000338635084
73.1994012745686
73.198276762243
73.1644675796811
73.2074074630792
73.4162385463571
73.6432678121645
73.7481140265312
73.8419321670065
74.020231116441
74.1804228833922
74.3147938034633
74.5100556728169
74.695410283852
74.8058033854607
75.0078915814591
75.294321725659
75.4909127910311
75.6652930780102
75.8571924386138
76.0705331301767
76.3238538925302
76.5918855515299
76.8755120515827
77.104489063189
77.3091975668847
77.5695823842859
77.8982193286709
78.1414403075348
78.3842260682186
78.7049176671577
78.9786711899076
79.2467878620754
79.6150619523212
79.9225260882652
80.0971967816653
80.3144614115236
80.6329167476192
80.9541020086811
81.1808535258904
81.4154985147969
81.7575921314125
82.0113314376526
82.2100032202966
82.4270260423336
82.6199725554797
82.8736103010229
83.2243466788479
83.4910051224145
83.6558262832439
83.8152736711525
84.0090425257144
84.2011822520395
84.3510342731988
84.5586565687418
84.7510237049866
84.9313608963288
85.1817560806361
85.3975668184911
85.5226281831186
85.7232266579899
85.9777555879594
86.1344680567869
86.2913593995011
86.485802617675
86.644813396637
86.7927311057146
87.0119355748492
87.2382537366936
87.4415807478974
87.5919690880586
87.6852162814661
87.7974084175059
87.9172163491043
88.0785502696205
88.2782987392273
88.3769313408732
88.4011918854274
88.4468815647231
88.4299850878909
88.4097745251554
88.3289081580114
88.1085875494435
87.8956842208111
87.717371067359
87.4724868538989
87.1287492332102
86.7665824072332
86.5171335915884
86.3884886003491
86.3848065448093
86.4528278672127
86.4771737806662
86.3932712508119
86.1059456449293
85.6409908006622
85.096528273698
84.608920740977
84.1598826362158
83.8556782299426
83.930346198511
84.5169396866355
85.2998144692088
85.8660800053068
86.2149028689258
86.5304250403163
86.9141328628892
87.2338159468337
87.4918474392943
87.7456935342544
87.9253672423465
88.0090833616118
88.1536855019992
88.3892787459654
88.6781660410954
88.9180532022688
88.9143950163181
88.6870792776953
88.6079124319612
89.2016478416836
90.072741345335
90.7265704700142
91.2170663778932
91.5135988577467
91.6869514703948
91.81874474427
91.9871227329616
92.1363307587732
92.1874857259983
92.3321422878391
92.5287138990957
92.5787787800069
92.6707489433617
92.8089441660962
92.9513209655537
93.0885126541333
93.1418443934693
93.2032457612736
93.3364753941399
93.4656039969682
93.5442795973443
93.5965247096821
93.6313570043067
93.6565811004479
93.7015511641749
93.7668651291896
93.8518041614613
93.8457281612682
93.868944175334
93.9381210587834
93.9364401293123
93.9538478132416
94.070761068968
94.2046164790136
94.2608570315427
94.2808640769867
94.3451955429258
94.3964347950608
94.4441765493454
94.5141977562163
94.5810651304948
94.6301247502568
94.680900053193
94.7192442042951
94.7955658810531
94.8917977906952
94.9450965933362
94.9768462054985
95.017930190727
95.0532193971887
95.1185657369851
95.1947101838662
95.2623766244421
95.3463679135023
95.3870204054415
95.4400088678261
95.5652751076984
95.6312877626635
95.6600510751865
95.7605907177067
95.8277326370184
95.8800545092587
95.9643704726386
96.0509214419588
96.1128841566603
96.1612129003358
96.2289910090613
96.241849899316
96.3358441934727
96.3671968509211
96.3832855401456
96.4470348365871
96.4672725144017
96.4415935516056
96.4290239621999
96.4239529485033
96.3726936828948
96.3308555766399
96.4094102218198
96.4450275591647
96.4063075811969
96.4286928024111
96.5612361091385
96.6177916309446
96.6003755697996
96.6707881690106
96.7775997926901
96.7835090638282
96.7645207484545
96.743365326396
96.7538685729924
96.792878083813
96.91715123352
96.9805402451531
96.8996559070228
96.8074393960998
96.8509476786845
96.9356692357494
96.9537760510804
96.9217669181841
96.9390941372954
96.9720685356669
97.0195546990797
97.018376917893
96.9786445944088
96.9964049658565
97.0564605651473
97.0643540631621
97.0729455436021
97.1049133479725
97.1066564552032
97.0619540922597
97.0377137921404
97.0319903110238
97.0488956505723
97.0235604028594
97.0645097501435
97.1140019203636
97.094611671794
97.0708167857225
97.0474562147408
97.0340509850095
97.0501023537937
97.0194170888446
97.0100356285159
97.0249890943022
97.0569254797285
97.0043190917887
96.9213538776569
96.8970972116422
96.8888981080256
96.8452844578022
96.8259645911159
96.8603591171989
96.9067223596476
96.8728967273415
96.8389880247898
96.8632277352765
96.9203465784188
96.9035128579239
96.9185432246662
97.0101683459888
97.0521573896775
97.0531463917543
97.096032622185
97.2030813095681
97.3110159972693
97.3431558341294
97.3578240555028
97.4295979479531
97.5403911051934
97.5930525886708
97.6547368988099
97.7415417016579
97.7825198500353
97.8545261359444
97.9715350583105
98.0151959309995
98.0508997979139
98.0774774020537
98.1330054741109
98.1963086053831
98.2530586586606
98.3087268149057
98.4231631749581
98.5274737517763
98.5428864127875
98.5258981436081
98.5750918188485
98.7438639785562
98.8000798844648
98.7564923824015
98.9258152976525
99.1301471751445
99.1232644236682
99.1328058273621
99.2397579311426
99.3116354839326
99.2468770675205
99.0780558567604
99.3361018640682
99.7806091143329
100.04835138492
100.33211448721
100.064579155036
99.0764045998923
98.5660534169735
98.5998065255876
98.5185613678033
98.2290237737765
97.8745533378909
97.6920086341209
97.7043422280402
97.6438323176122
97.5851359985749
97.6147234443067
97.7042362114805
97.7595548187531
97.5721241725956
97.4733776437757
97.637685863526
97.7944384151459
97.7852115369698
97.6959995746262
97.7426726798665
97.9092379851685
98.106665560378
98.1892142218376
98.0435616761628
98.0678674993122
98.3146077696431
98.4919096281291
98.590076874869
98.8320001667544
99.2051965842199
99.453635172685
99.6935457272493
99.8113656457302
99.4935864864915
99.4230961044635
99.4064639387295
99.3877257444782
99.0801289314351
99.1147842803138
99.3001055816592
99.0270244111417
98.7606145348843
98.9421705075892
99.0233705150165
98.8610699854208
98.9898014066438
99.4739879833224
99.6727775101567
99.5242378753023
99.1836156511409
99.081150472698
99.0122541369909
98.9909339765528
98.7349506460368
98.5964454505776
98.6641688606839
98.5860219951204
98.3606551491173
98.4086579752724
98.3177737072547
98.1919545240335
98.1811130223007
98.2199111666266
98.1674130382215
98.187823603783
98.125706405076
98.0198854647704
97.9840795523518
98.0218838281972
98.0576683179126
98.1298882410238
98.0595961725542
97.9702897524674
97.90016396558
97.8929299247411
97.9072855765095
97.969262376295
97.939027900545
97.8780140482936
97.8210183438446
97.8360916130339
97.8259835535981
97.8529811919314
97.7596912581754
97.6876833149932
97.6575442399602
97.6617135625335
97.6196281022382
97.6110815340466
97.4881647504581
97.4297511792569
97.4184811894717
97.3894179508079
97.2529028711226
97.170152807836
97.0553882164215
97.0059115455234
96.8523713449199
96.6454634210454
96.3916536308311
96.1448869914697
95.8554900254575
95.5243308466461
94.8279897529626
94.0331420842819
93.0069317166586
91.7230611986634
90.6212476744927
89.9650834885432
89.460683330225
89.1044409887754
88.8302482325457
88.7449496216864
88.9657234598733
89.4064327329841
89.761371909559
90.1290438665267
90.4198658924049
90.7315196110854
90.7069812373185
90.551407819552
90.1728607276301
89.3841930997525
87.8851375713651
86.4438755663978
84.9363549869935
82.2105111940611
78.588657239197
75.7290071736745
72.1853675088598
68.0900270434498
64.4117863345423
60.6472452176397
57.3071680104164
54.2250848266384
50.6458279551337
48.5093549845253
46.4026226029947
44.8033530496903
43.7900752574248
44.1937544835015
44.9981256076946
47.144610032472
50.1179367266813
52.9349218237292
55.8811417025837
57.5322476604567
58.7620477441693
59.5573039265302
59.9548976516632
60.1774382393354
60.6091273923806
61.239293211535
62.0736560296352
62.59769715864
63.3349879357489
64.1434665726212
64.7591249827079
65.3617550985451
65.3005108386584
66.9458426172504
68.9948497782308
69.7826967632313
70.5401956729978
71.259176664051
73.6019398637066
74.8710262346122
75.7460485908794
76.5738968174401
77.3020724394817
78.3035484264236
79.2038555873364
79.5714545443137
79.8372984741349
81.6618470254306
82.5656720395608
82.8932349930384
83.5582602773411
83.8705178163566
84.2885757378654
84.3805695568758
84.151605424261
83.6699469443136
82.8893670374446
82.1222749215589
81.3720846794937
80.6691777463065
79.8910333079766
79.5344215867238
79.3567522372259
79.2296155800061
78.8567828167593
78.0882879495233
77.1403161185639
76.2172753745926
75.1838102019157
74.1641782338756
73.0327697295185
71.830606302081
70.5319410670194
69.1895837535318
68.0898275990171
67.3627519670627
66.8999258243712
66.7378882451537
66.3155684048245
65.7100170619578
65.1171522703846
64.535225417707
64.2332767447536
64.3040679945583
64.3642796186579
64.8162288475069
65.9999583211482
66.8439235905508
67.271691346798
67.7420024312198
68.350032128035
69.0994025094645
70.127461226079
70.8552282744879
71.1319054475271
71.311549290547
71.4202501822359
71.6721809977126
72.2754134989728
73.1093389776566
73.9575027313919
74.6010436795781
74.3619790370071
71.9581124778904
66.6511481743269
59.2793845174105
51.1009176521049
43.3679827229979
37.9778064547217
38.3148291927451
44.9846774204641
52.873686116822
57.3776075673277
58.9034650216796
58.8861569892803
58.1776650280614
57.2228685744428
56.3574085961504
55.7777470102688
55.646121829236
56.03182553383
56.9161937406522
58.1173890519036
59.5413093021555
61.1604931509906
62.9528362932051
64.8175122563604
66.7545387010275
68.8203035364244
70.9380913115494
72.8228287348645
74.212755582069
75.0150946849091
75.2996875665878
75.1554147117497
74.5897957725663
73.6065138055748
72.2970863184219
70.824711764936
69.5703345299427
68.9820626500548
69.1934815146424
69.9212796864196
70.7388272461258
71.2634049830673
71.2066696592467
70.4420683813988
69.115543239699
67.4823273996219
65.7554912155328
64.1003970150397
62.6355892940798
61.4302567738514
60.4833714489923
59.6702209411165
58.8625901434693
57.929752033018
56.7876183734778
55.3237832247173
53.5460312365818
51.5826779880932
49.5934969940995
47.7176836882953
46.0548019787178
44.5450897864762
43.1055156567661
41.6959499760978
40.4191698358522
39.3851658727951
38.7497089933895
38.4856057091448
38.3917329032428
38.2375901866635
38.0314783903888
38.0126730368652
38.4427562500848
39.3258956201624
40.6485660276124
42.3010478523195
43.8675035287099
44.8640533192313
45.3450086282553
45.7208701532305
46.3368132950412
47.2675405751401
48.5940822573997
50.3730851844906
52.6340049703322
55.2717655837708
58.0164369519667
60.6777949968631
63.32688366493
66.0030768780233
68.5286662243985
70.5627139663104
71.887644253786
72.544744852463
72.8189775829198
73.1131561842132
73.6774995859261
74.3824307074535
74.8294395611927
74.7763380475732
74.3743498780678
73.9787634679535
73.8659342159013
74.0378031062813
74.2434119888987
74.1448754873039
73.637044497625
72.9643919038016
72.3497797429008
71.6506077470892
70.5807683767136
68.985492976324
66.8945269141633
64.5017992293574
62.0753785561907
59.7247019847419
57.3368958518288
54.8120866718353
52.1816978320679
49.5129159697975
47.0314396536498
45.0074138361035
43.645984923735
43.0084230599783
43.0477705283278
43.8212946051466
45.7373034811937
48.6643211710623
51.8888034078504
55.0683799017299
58.061193236134
60.6786354766501
62.8517548065381
64.4412760045926
65.4245161707039
65.8517588412994
65.8766138851477
65.9898893178322
66.4905917513268
67.0365737411186
67.2554612788369
67.1629617607685
66.6902773921049
65.6472636342702
63.9971530452844
61.9789295301611
60.3534119283729
59.5919275586392
59.7589618223483
60.8264084850761
61.9577268461132
62.2825878853095
61.9301312523891
61.3200297601972
60.7252977683165
60.2130750565011
59.7440651711707
59.1999523351626
58.3629891582341
57.2731760441338
56.2123779761577
55.5106926631982
55.2244329751845
55.0299744721415
54.73783737564
54.3518666998076
54.0670794099874
54.0960775325179
54.1859695053089
54.1886677761737
53.9766516689174
53.7139282244357
53.6084192682883
53.5356638359834
53.3065546431156
