900
3999.43349933624
648.556783676147
1
128
8
98.7689360298582
98.751121347626
98.7299467808058
98.7064596602269
98.6463332448624
98.6832841165222
98.7790493970304
98.7295512324942
98.7256199928401
98.7716807782506
98.6945740584739
98.7110993759586
98.8212409460176
98.8672401284567
98.8533383239805
98.8242849113098
98.825082694291
98.8323853192954
98.9048253622393
98.9684291150616
98.9097969963018
98.8983768437245
98.9236309332879
98.8839244607833
98.9106554650462
99.0188601302146
99.0986471642497
99.0472578355682
99.0016088447702
99.0346500658099
99.0546267880706
99.0990134863387
99.1084624140342
99.0731052958318
99.1517029885308
99.1785389341287
99.0902478649957
99.0783681417528
99.2259078435871
99.424789882931
99.147587379833
99.0718077255872
99.2006886915113
99.3023582061185
99.2042016497252
99.0713292051122
99.0617017570647
99.1967255896843
99.3463442480569
99.2192588401443
98.9738598447389
98.9552208878277
99.1771067894839
99.2655455781413
99.032931784192
98.8890625903759
98.8927560064109
98.9477997514648
98.9582392711936
98.9189586894687
98.8966021560162
98.9782487280682
99.072281593153
99.1022853773409
99.1293461948557
99.1977271853334
99.3746325043849
99.4747304060247
99.4036217057413
99.3506033332088
99.3545426347123
99.1377871940634
98.8669547103593
98.8898952720476
98.9383248748497
98.8492862188181
98.8018062864447
98.8013956830825
98.6079384486731
98.3792041019171
98.1810436478405
98.0753126490572
98.0711113217898
97.9567472705481
97.5608429756181
97.2430658915675
97.102901150953
96.8600790780832
96.125439588364
95.2749383686945
94.6478554936565
94.1344747020038
93.7008899085878
93.3617267251191
92.6910771149233
91.8027563609581
91.1534856948068
90.6284552189558
90.2312989689883
89.8718270953225
89.3494450705631
88.8424804141412
88.3384728633388
87.8219245486922
87.370447858646
86.8791794620842
86.3551798636142
85.8775433494737
85.4362864479865
85.0491976371903
84.6834026929075
84.2159832136375
83.6680166925365
83.0983990738568
82.6573139073562
82.344295380199
82.0835639048426
81.7183855698612
81.1511738231443
80.6153644959401
80.261036970694
79.8765648902276
79.3750553501177
78.9083470034006
78.4803692867214
78.0989424997108
77.7118146140225
77.2582361712784
76.8657509524589
76.5418294813206
76.0834849202872
75.5865505764036
75.1921626971994
74.8145046403461
74.4423076340213
74.0943260645402
73.6804293884401
73.1614021463564
72.7817197206756
72.5863349337018
72.2658852386479
71.8599160718688
71.4785227689935
71.04051907442
70.6795448416898
70.4285182129811
70.1287424589957
69.791955881303
69.486410700332
69.2742156051092
69.1026583947362
68.8454223847549
68.4643590636002
68.1512867237278
67.9694557612696
67.7783845025031
67.6563493965616
67.6308683385612
67.4944865669456
67.3218414594848
67.1575257750846
67.0638252992125
67.0840213679486
67.005240639392
66.9352715152479
66.9955100460695
66.9863501980593
67.0568736814485
67.2175261805308
67.2382566941311
67.228687501415
67.3589430371881
67.5146065833614
67.6530388151002
67.7730015426957
67.8924325507259
68.032209079101
68.2057669834842
68.3744162947847
68.5281699787666
68.6866203455881
68.8605204791108
68.9632952456913
69.0450716269316
69.1448285606202
69.3031015142899
69.5351401690594
69.7123412229328
69.7597082930568
69.8863915275117
70.1408073678398
70.2927536212347
70.2928565596759
70.3134747383041
70.3589168579699
70.5496840467879
70.8261684722881
70.984779634045
71.0510985209241
71.1521539015921
71.3067289943311
71.4534959443748
71.6370560412515
71.8481508741819
71.9897088080996
72.1798594951084
72.4649610328765
72.7055048946268
72.8973663296932
73.1501811828759
73.3889762268299
73.6731825063102
73.9998018488865
74.26599246158
74.5248037355332
74.871531736166
75.2005023052122
75.5095126196422
75.8045698881241
76.0931449059099
76.4682305545154
76.8818047736825
77.2195934906104
77.5362972169911
77.8884488769646
78.2722547846472
78.5718323060734
78.8944649164552
79.2745274378873
79.6066489825372
79.9280576985061
80.2860423552497
80.6008545877179
80.8920225125136
81.1700243437738
81.4878322751856
81.8787543907945
82.3097011932483
82.6265082691949
82.8768571924271
83.1561712150629
83.4598431119348
83.7451603597281
84.0519685353476
84.3483017061762
84.6480589904128
84.9624180910865
85.2258125961909
85.4765186896905
85.7099759806703
85.94112512986
86.2378409597364
86.536752270912
86.7569547042778
86.9512058861455
87.1580297247051
87.396990596128
87.6210310297341
87.7747313560535
87.9410014286586
88.1328511991199
88.2907635404551
88.4234113551893
88.5304623251628
88.6888028378222
88.8238333251244
88.954924190002
89.103018188672
89.2239151396808
89.3379406992599
89.4085630255852
89.3885797707342
89.3417438378198
89.2705427745113
89.2143648518725
89.133888766098
89.011261316749
88.8887400012676
88.8027789127234
88.7178713217759
88.7332609973248
88.790761211578
88.7480007066724
88.5692822385697
88.2670110969837
87.8942538104204
87.5136277870658
87.1257906659125
86.7283568870517
86.4191450457832
86.396412154881
86.7437777342585
87.2873226272354
87.7208447207571
87.9768862038088
88.2292967410989
88.5262818875945
88.8351091710996
89.1359726884034
89.412146614223
89.6495941868974
89.8469729013022
90.0807097803461
90.3508694905455
90.5982642322032
90.7674773779799
90.8098414665228
90.7060361495917
90.7249326936265
91.1720515930025
91.8156578823159
92.3459824336289
92.7339980010776
92.9748878595477
93.1252187336671
93.2344005639792
93.348749835111
93.4347455305451
93.5063803533582
93.6511909499747
93.7930071977569
93.8702846718185
93.9877813547798
94.0935166067347
94.2113457984025
94.3544480579357
94.4441055040597
94.488186098494
94.5419183195918
94.6148952318035
94.7095213640225
94.7836386498735
94.7758384469787
94.8315341337159
94.8872928518648
94.9076863084326
95.0024025336643
95.0291090865662
95.0238681446835
95.0735869932815
95.0865927422941
95.0915023455507
95.2007363963536
95.284873774141
95.3233611002015
95.3499786150052
95.3954338585943
95.4542408583456
95.5071548038084
95.5883464913125
95.6838164924283
95.7119128414807
95.7152502295277
95.743542555284
95.8186332963521
95.8785872351712
95.9242986445661
95.9763703848668
96.0060022959166
96.0330251485217
96.1050957352344
96.1804410375162
96.2292896580952
96.2558895404231
96.3525212615608
96.4452814179136
96.5216140466327
96.5976896594134
96.6681315641854
96.7056277251418
96.7589513192894
96.8285014881831
96.9317191078713
96.9436327269393
96.9615499248129
97.0394019192018
97.0941490822276
97.1455820318186
97.1979722848274
97.2673669548675
97.313498414148
97.3335709092878
97.3393644061461
97.2844083515665
97.2543509711173
97.2383117157065
97.2474033832673
97.2662108300375
97.242673911168
97.1663495553948
97.1809323708462
97.3011943095239
97.3769708683651
97.3675361812357
97.4156520759507
97.4961350978411
97.5482321816246
97.5732103973589
97.6175184785954
97.6262378770861
97.5994451056374
97.6146732094874
97.6581374882957
97.6610515712651
97.6460181091607
97.6700531837436
97.7063214817569
97.6980172423065
97.7163312343469
97.7523811108556
97.7663029695102
97.7749995070672
97.8474671909939
97.8451916912496
97.7511888429182
97.6986784031191
97.7538586558268
97.8336866652527
97.8462787551317
97.8182763655293
97.8360117403162
97.8327576842557
97.8249428047437
97.8184782320924
97.8192164518086
97.7903716001306
97.7918957242001
97.8071191163259
97.7715393890701
97.731234338332
97.7601822459925
97.7917326856786
97.7889886624268
97.7845581076405
97.8123256583183
97.8466355788441
97.93366746609
98.0254717212006
98.0968986487637
98.0737089151661
97.9850122688017
97.8189779613679
97.7306567443746
97.8177705664712
97.9137323623307
97.9210859304918
97.9022688379328
97.8422811053699
97.8197745957555
97.7748694949241
97.7475427500754
97.8403014493754
97.8652262433373
97.8168683395787
97.8331881745782
97.8619522031885
97.8418302986752
97.8332096204629
97.9218039181307
97.9672839648087
98.0110787472342
98.1618981269496
98.2410500465629
98.177901346245
98.1966475652852
98.3455219764383
98.4386086707561
98.4068438461439
98.4565737913844
98.5676019770221
98.5480625344306
98.5684131165924
98.6610905114357
98.6577863566809
98.7428687456728
98.8585105801476
98.9170164865556
98.7967886678239
98.7354858426239
98.9986636584725
99.2302916758939
99.0909478182873
98.9354742862676
99.0375775740732
99.2441086326213
99.2591622521853
99.2918585289874
99.5213089301479
99.7916389066135
99.6678838052895
99.3657665539577
99.7514611485834
100.410862207311
100.385682340359
99.9377585035573
99.5531864339584
99.1546674745944
98.7697768967798
98.6219358789657
98.6075211267491
98.3893257601729
97.9583730386925
97.6955185827665
97.7526512855121
97.8256913647308
97.74812255345
97.6984268704638
97.7899969854676
97.8550288308324
97.8257957214009
97.8287699303434
97.8671803054614
97.882039023182
97.8499476738182
97.8071678431964
97.8426120609733
97.9622972322077
98.1592642084118
98.3836015902066
98.4385369870038
98.3743604558181
98.4219059165264
98.6149511824066
99.0148431479327
99.2475269713187
99.1920745061589
99.3139406557858
99.7111825477417
99.8863265292841
99.8238478247902
99.6890090667247
99.5966343599459
99.6051968205257
99.6086867673514
99.5851160459727
99.3452647939633
99.0568519624254
99.2788048971662
99.4563574842387
99.329419721973
99.256590761657
99.5012624947516
99.7069526594355
99.9159475908793
99.8125252726522
99.4299115735352
99.1097263172228
98.9250495331849
98.8371166720689
98.9661866720165
98.9806812397313
98.8323799758493
98.6222577389893
98.6476745082083
98.557440227489
98.4839199951146
98.5252791085668
98.4651572447577
98.2957436265769
98.2970335830981
98.396858654907
98.4416436983475
98.341474362697
98.3112795451527
98.2392461528355
98.2587347045489
98.2794785922411
98.2384499197951
98.2171274509546
98.2308006302401
98.1987876312762
98.2613391460559
98.2161281604319
98.1530068575134
98.0956770807457
98.0494334953718
98.0114544534614
98.0258874078685
97.9694628316847
97.9404366561833
97.9210358242483
97.9462701911611
97.905974925135
97.864870457311
97.7600312167671
97.7062758645905
97.6402814070566
97.5839918721998
97.4744035969683
97.4087059071898
97.3481645184645
97.2848052828185
97.0965365661485
96.9412372880231
96.7373510128686
96.4839893891356
96.1740974913138
95.8480373983991
95.2215222900427
94.5342278438376
93.6678317040587
92.5138067255403
91.4665020266141
90.7866662761549
90.2433323198998
89.935294727178
89.7981943924372
89.807398452252
90.0302742549731
90.4200675477488
90.7190748924241
91.0571037917378
91.3510097945756
91.660052788361
91.6105787092326
91.470038761645
91.2029188567682
90.7537990935532
89.6294076198689
88.3532124591116
86.9994474066697
84.3642143169003
80.4603912962727
77.3445626857057
73.585207301741
69.1486814828351
64.9729091454724
60.5749572065213
56.658428655246
53.2773171941027
49.4155178243927
46.8779010005779
44.4289428697111
42.5091074597672
41.3588241827494
41.5426730519566
42.0966733783546
44.3163739133972
47.5136892415459
50.6685399832315
54.2795676985132
56.4860463797881
58.5432527963036
60.3874773661074
61.6657179866006
62.3676063146538
63.1125825490403
64.0438762251879
65.1771543053176
65.8354621681382
66.6953481438265
67.4354716018141
67.8749924059727
68.2893416734162
68.0922275127332
70.0137143645723
72.3479503625412
73.3488782516731
74.4097440312837
75.5101345518553
78.6639989249326
80.185083251225
81.2097927075645
82.2369629111093
83.1283233920606
84.2298076561227
85.1141668823826
85.3608086167899
85.4171382490985
86.6368740759954
87.1845148306597
87.2760679689542
87.6098754042957
87.701767005914
87.9066264601803
87.8490508723519
87.6160634251768
87.2566657474522
86.6935432996169
85.991758483781
85.1834682686876
84.380829014014
83.6201506558028
83.2192606714361
82.9326797525968
82.6445986675974
82.0588357361373
81.1003807317487
79.8492992630494
78.5710349673343
77.2675302356056
76.0942657089402
74.8264112517463
73.4821175897258
72.2161815701317
71.1982207549952
70.6653784948849
70.491540040574
70.3862320367349
70.2823389866418
69.6369256576517
68.5856477524963
67.5341134016738
66.7224748677857
66.3888856741156
66.5355811039413
66.6747292038475
67.1282083819686
68.1683076362148
68.8387625160342
69.1049826893109
69.3717783091198
69.7950524400178
70.4769125940445
71.5565516424156
72.2883625051513
72.3929452239777
72.2529246714573
72.0212558177692
71.9793684483007
72.5022274963918
73.4295348939782
74.319041733099
74.9333927249517
74.4087386807336
71.1331618985446
64.3896649587592
55.5133599542513
46.1192759639914
37.6139702062534
31.8961686994587
32.6368430949835
40.7727401786624
50.5922124482675
56.5972881149818
59.1697190416742
59.9316790386344
59.8272788228029
59.3650380625213
58.9295148500392
58.7413410273195
58.9570586751207
59.5760557593816
60.5421607286657
61.7446901605543
63.1598718411089
64.7519522013787
66.2352101629485
67.5154787816759
68.8587936644862
70.4072702156326
72.1372067146851
73.7917326245817
75.0279427439071
75.6744574777438
75.809867048154
75.5056063829713
74.7472875393332
73.5399990002446
71.9643798463379
70.2531728904673
68.8433984685794
68.2062860864715
68.5543919576713
69.6167309294094
70.8711586545075
71.7995106109634
72.019167184153
71.3833521442264
70.1002335649949
68.5104201805184
66.8875690190228
65.4282087346257
64.32214288577
63.6339893493579
63.2476436958491
62.8874970057896
62.2892337266871
61.3405236376423
60.0868633977103
58.5100103793855
56.6530416122487
54.626093954138
52.5254679798152
50.4348646545229
48.4994600735957
46.8151800858944
45.4156216973972
44.2296997547853
43.2716704235464
42.6627949787203
42.5342160207672
42.8303345910891
43.3813185474717
43.964311603604
44.5297539147806
45.0622079363298
45.4637994437645
45.7330326259028
46.2466931093113
47.2678584334364
48.5026593555711
49.2845087840334
49.3943493795858
49.1652215586586
49.0160419714321
49.2209066347458
50.0577212884818
51.6599957821061
53.9775086296333
56.747754991509
59.6539940013248
62.5076967555729
65.3605548754904
68.2737005485309
71.1033014436092
73.3973892405265
74.7740265268005
75.2552637376464
75.2138359359554
75.1745378736863
75.4581166901306
75.8651325745416
75.9809986550645
75.6350262371524
75.0831405639308
74.6767448340352
74.5727992855587
74.6612345151098
74.6024048163764
74.0408648095219
73.0373967960733
71.9416725712151
70.96244939818
69.9612412483736
68.6348598330684
66.8391566617804
64.6415552603241
62.2345347484261
59.7614751825207
57.1520054323897
54.3985566607115
51.554885074939
48.7283220720168
46.0295794299592
43.6448599259079
41.8260038052094
40.6577129052779
40.1181426238028
40.5600096223006
42.0264207654464
44.4138901661698
47.5696092328265
50.9246903815394
54.0680182621897
56.9035414144414
59.3392999133399
61.3226691054449
62.8101185738556
63.8046676569276
64.4231003156986
64.7434124816837
64.8620618798159
64.9789827486737
65.2606302628853
65.4369283084282
64.6055542213488
62.9140937009509
61.1163680136055
59.3940904886063
57.7537264732057
56.4544558491254
55.756362525517
55.7148869749469
56.4883749337278
57.4380894264365
57.5862448530542
57.0770391614371
56.41960107275
55.6962170635145
55.0787609841386
54.6277670883702
54.0734442875247
53.3936686958751
52.6470297705014
51.96125237337
51.3139460138278
50.6931213987522
50.3513884591539
49.9656372773071
49.4857775103888
49.1890484949785
48.6759450235813
48.0378190713358
48.0862048031401
48.1689005696838
47.6816100358132
47.0623872464211
46.434481429848
45.8563120305329
