900
3999.43349933624
648.556783676147
1
128
8
97.0345752412743
96.9493360828197
96.893032193421
96.9443712896308
96.9675109973126
96.9934677954285
97.0302446962189
96.9813619816179
96.9276177624488
96.9300211141287
96.9954566646422
97.0019734222654
96.9434942219378
97.0156075033855
97.1039276286449
97.0792770368401
96.9938848544031
96.9739542098777
97.0494244831247
97.1107821902633
97.0889432925354
97.0709219186486
97.0855625978421
97.0824861185409
97.0977543864949
97.2577725622857
97.3521388884679
97.1879653797319
97.1554489799689
97.2487971213381
97.3015549303319
97.2898217540085
97.2334445815785
97.2359681885869
97.3417754696051
97.3838547675534
97.3525037473405
97.3227416535196
97.4256864508208
97.5284950098034
97.3527453279483
97.3317509629409
97.4404546274913
97.4904426597953
97.4238685551786
97.4044816072942
97.4038172980667
97.441023454259
97.4582572183075
97.429396714772
97.4281183314511
97.4557137767573
97.4709459375619
97.4885069057973
97.4165662021759
97.3373779837125
97.3581660784581
97.3968641697649
97.4159088080551
97.4304800277283
97.4226688689932
97.4202691371725
97.4166026167777
97.5037991202728
97.6311601131685
97.7114403137494
97.8453099370972
97.9890624536156
97.9205656192269
97.7142513839207
97.7108490693415
97.7575369017608
97.6600177270924
97.6181533886228
97.6007536522459
97.6291278391478
97.7566350046637
97.8695073864912
97.6989550034684
97.5069685150334
97.3873332052316
97.3348122986877
97.4107255865336
97.461003944499
97.2653485290908
97.1613021097008
97.3012939965126
97.3952436446403
97.1033822712055
96.6970513944409
96.3212555390225
96.0476661745375
95.9289280413621
95.9907231091172
95.9969074583111
95.3863704496753
94.8288212973976
94.5652233234259
94.4689042082158
94.5855891131196
94.4354506889444
93.9734961803501
93.6491412812112
93.5149812023608
93.4275133290555
93.2476299807242
92.9677861462195
92.7051992539297
92.4618956951158
92.2487484032647
92.1967372600363
92.0590804879118
91.6409771377171
91.2949062596369
91.0541140357939
90.9918572762304
91.1290225725888
90.9441747169178
90.5725238952045
90.257001912617
90.0397654857722
89.9018072463404
89.7349665971017
89.5246395014827
89.3452316733908
89.1685455932951
88.9950570719372
88.8191400759065
88.680540339397
88.5231594130849
88.2072191528896
88.0198100513567
87.9818502324071
87.8207192913016
87.6192095970897
87.3352325860167
87.0638266382496
86.9454917433999
86.8318834780619
86.7037601194947
86.5032115664647
86.2741789196225
86.1012077659502
85.9280274998541
85.8094108504607
85.6967552006984
85.5331722495267
85.4480795196189
85.3571318514059
85.1858357577817
85.0811919002704
84.9968479700707
84.9093451717671
84.7735084575464
84.5340227157287
84.445010544884
84.5085587999611
84.4797645506959
84.3733142170548
84.3477121587447
84.3191010179537
84.2180707827946
84.2239493425885
84.2266312674143
84.1309883231685
84.1159216535173
84.1676250104062
84.1923704516644
84.194414215666
84.2519511668185
84.2972741608798
84.2897446048037
84.3677097081035
84.4953312027909
84.5576173108944
84.5652732773694
84.6229158632537
84.7034212697366
84.7404662091301
84.7732193337349
84.8491034944423
84.9951000239167
85.0727187636395
85.0037133794231
84.9778603890762
85.1232359663834
85.300208761666
85.3363181938768
85.2966479037837
85.3492194484631
85.4387838513017
85.4810247470124
85.5318215257522
85.5848110309871
85.5970288372148
85.6212757785184
85.7251647907255
85.8614098661397
85.888574023426
85.9042293644266
85.9790585353538
86.0312979467455
86.0759275674107
86.2041056054537
86.3100498768215
86.3601225352064
86.4418385473636
86.5713393216285
86.6995004930176
86.7922597240688
86.888470275216
87.0073869296511
87.1294223397499
87.2505627186471
87.36708086253
87.5250587452802
87.6530124172056
87.7481288543238
87.9236391664117
88.0660952766813
88.1787830608504
88.324837036818
88.4718568538585
88.651953155918
88.7942070061853
88.8956988754945
89.0204658300209
89.185571769213
89.3361104271606
89.4538763041029
89.5800834956567
89.7573720126555
89.9060631915952
90.0085811552559
90.0889155768886
90.1493717926511
90.3204976740583
90.5349957685872
90.6384864331311
90.6922913949967
90.8570364679391
91.0237313927822
91.1141805733766
91.1654225377237
91.2248319219936
91.3499850171965
91.4901806495491
91.6226488285629
91.7107659273907
91.7596635942186
91.9018781841812
91.9801443677395
92.0057469635714
92.1346148346014
92.3036785957352
92.3848360468465
92.3773458548363
92.477002073846
92.6028497979459
92.672512635548
92.7362837602158
92.7927054845857
92.8566051100964
92.9623987882283
93.027858656753
93.0817994500129
93.1517090055586
93.2003811955669
93.2420260690624
93.2165954710688
93.2549514923045
93.2865792651371
93.230912231235
93.1787775112112
93.1293725880385
93.0455294346
92.9907941134289
92.9830522384364
92.9740947577208
92.9421023051489
92.9742539746955
93.0041004358625
93.0198581975156
93.0240891478203
92.9936534110329
92.9242021070891
92.8678050546021
92.802173278253
92.7478860193667
92.6768346403903
92.675924259269
92.7478888492379
92.8000902325068
92.806313799696
92.843890668366
92.9382018497902
93.0616812574948
93.2009610722498
93.2905336235294
93.3769505382298
93.4672123116329
93.4936928443566
93.6040015949824
93.7836891368664
93.9192945223782
94.06834780018
94.2126666788541
94.2718645773212
94.3161200789556
94.4439376991366
94.5954982417165
94.7009818651771
94.8437460416282
94.9279188952077
94.9482258918536
95.0052639620318
95.026812501867
95.0767190332798
95.1736542510125
95.2012152038329
95.2379126348105
95.2487615311671
95.2661046557303
95.2967526628387
95.3802114965933
95.5082421692877
95.5702889365709
95.5746969582635
95.5722340015003
95.6221368551454
95.6919743546954
95.6932233686727
95.7280562515262
95.7601277221575
95.7266835979412
95.7605488386115
95.8478460540132
95.8294550436334
95.8250733124125
95.8669402454789
95.8565982265924
95.8510100163258
95.9351745839291
95.9936485918704
95.9892656611122
95.9870928289846
96.0169775958856
96.0533198214915
96.0691132139902
96.0989125803867
96.1527025204794
96.1613863227347
96.1569595908649
96.1725077692973
96.2203107143805
96.2554900613612
96.2891648269361
96.3063662803374
96.3126469178694
96.3514012684234
96.3868650698513
96.3962441720553
96.4142593838518
96.4717813671062
96.5306377244986
96.5721844085812
96.6024290857919
96.6237493467742
96.662317892341
96.7322421581488
96.7760728516964
96.8206000948461
96.8259603172886
96.8247592690904
96.8826240841487
96.9339547099709
96.9916247086305
97.0283640422821
97.0568268746999
97.0684601489507
97.1007388632591
97.1577846846631
97.2014610330128
97.1825604047017
97.1854970545202
97.1893666920235
97.1598641102165
97.1390274073597
97.1198596444125
97.1073975155647
97.1220125791939
97.1543513190561
97.2281697722762
97.251848592956
97.2472349529809
97.2658414368273
97.3134161093631
97.3735349497723
97.3713956220818
97.3762771724082
97.4453352315613
97.414092967763
97.3819337814433
97.4079117945889
97.4724219430166
97.4839860792693
97.4564484510624
97.4070787126575
97.4134427586826
97.477034060473
97.5061067517324
97.5137937948745
97.5292755673294
97.5261415252523
97.4740455829735
97.4019913157076
97.4258341740251
97.4582926512324
97.548299645594
97.6208210527666
97.5877671504719
97.5337190489223
97.5229830694697
97.5382683458863
97.6165136000975
97.6357235094912
97.5631631230125
97.5167224586603
97.5101349546672
97.5184154019413
97.5367210316367
97.5407620821491
97.5391503822109
97.5368047811415
97.4966038593131
97.4610953879316
97.4189183342016
97.3561867373759
97.3888627756435
97.345929165249
97.2378556974439
97.2591659847898
97.3600585505712
97.3775584065434
97.3437030468999
97.3301229610652
97.3647019041049
97.3849774810033
97.3478494893131
97.2855923823197
97.3232676272488
97.4111787077855
97.4414537366584
97.5163392110083
97.5994012221073
97.6610382492841
97.6814129309481
97.6289925502277
97.6648059613578
97.7773804421119
97.8562677843897
97.9112325516432
97.9921533637731
98.0198237421411
98.0643246375405
98.1167774088567
98.1196579871163
98.1624589399852
98.2559857337349
98.2878441186652
98.2983962172417
98.3489364765468
98.3270319872966
98.3156306699742
98.5075331542921
98.6266911368638
98.5760420308784
98.5618170097561
98.6655829466026
98.743171660217
98.7112629958282
98.6756780475476
98.7561397345332
98.8563769638681
98.8678136125516
98.8319336778178
99.0082188394432
99.1925073005201
99.1520765568685
99.3088113648262
99.4588564291086
99.4695796699956
99.8391658418589
99.8878067321808
99.2855162792988
99.1006969684813
99.1430488929401
99.0408518996081
98.7371122932756
98.405875889088
98.3550619696364
98.3695963155915
98.1890972930341
98.109395908374
98.1892694480644
98.1321739132835
98.0925793208718
98.1476489489191
98.1328646769483
98.1423686837034
98.1973480514609
98.2777509501526
98.2101387046846
98.1019365009916
98.1258198800803
98.1574808387963
98.2753779279982
98.3895703499967
98.4233652686501
98.5612494064416
98.6295975773878
98.6690848250167
98.7924252684016
99.0458940770334
99.3790399923495
99.396314403055
99.2057208849102
99.3175601384643
99.4525855027566
99.660761518473
99.8534327656303
99.8215313648382
99.3771872490484
99.0887781955181
99.2407591990886
99.3267484612274
99.0745312554757
99.1160525467993
99.307598176122
99.2798937466901
99.2468986339724
99.3284403244595
99.2967399387754
99.4400720812231
99.4447579110152
99.4346762040518
99.3576931412172
99.0902514302399
98.9558204674894
99.0659115896766
98.9684427165813
98.8285004070121
98.7655888746173
98.7305942007396
98.6508377148825
98.6233206994947
98.5495638906289
98.5744708656647
98.5839828144249
98.5918943004455
98.5441920691651
98.5352378238717
98.5170859875885
98.4988919466698
98.4902635143501
98.5186391717689
98.5422005722349
98.5248264105404
98.4557083578524
98.4643971683751
98.4352516763949
98.4402186695065
98.3993103633434
98.3924100713088
98.392504177666
98.4242918039369
98.3765591569602
98.4041793115587
98.3881880116738
98.3480446554811
98.3046859201619
98.2959294848556
98.3072715426215
98.337533714471
98.2550336206901
98.2111699716177
98.1645937994824
98.1591207176309
98.0889005411455
98.0758482350593
98.0611292353291
98.029676458226
97.9730976147581
97.8686081764607
97.7266471198559
97.5897853277834
97.3966876308053
97.2164970495775
96.8055507000615
96.2954742903931
95.6002248250735
94.6554585593135
93.7124507697413
93.1510851888465
92.830652324048
92.5968750712237
92.3761122674622
92.2708256909005
92.5761271395906
92.9770671076351
93.2486885946722
93.5970155140791
94.0202475932438
94.5488212422625
94.5954428121417
94.6054869163539
94.5571488613119
94.4492232785535
93.7146062429142
92.7908744207422
91.8807740013586
90.4161615461278
87.7969321722373
85.6531317198255
83.345619002126
80.7275673054158
78.0218924791281
75.2919492734922
72.5866503785531
70.6877486697892
69.1836576590519
67.8156099661637
66.3257269116565
64.8554409193966
65.1480397336657
66.2061790438257
66.4687013385743
68.1219818419263
70.2132793710008
72.1032788007742
74.2349025572279
75.1632842363313
76.0469591496399
76.7800144469884
77.2462601760349
77.5575312201372
78.0124262585195
78.466560453234
79.0263288918387
79.3688461772964
80.2275482310726
81.0234482261588
81.5586982269839
81.9869001652735
81.8575827047208
83.5341525561287
84.9236761479759
85.2205194893302
85.615797102063
86.1423396924926
87.8602248346147
88.3528159674869
88.6574888885561
89.0200370443847
89.4596815147294
90.1505112915184
90.6228649333033
90.6410463310833
90.6923193863722
91.7364198513376
92.0630589331029
92.1425759589976
92.5092536922474
92.6520687725978
92.9144375763864
92.9002006555913
92.7812401970539
92.6570466876466
92.5230293763804
92.090002544799
91.6105435835099
91.0640514574795
90.6404732487851
90.3245746030882
90.0459021676988
89.9396895569635
89.6356740690168
89.1677133655342
88.612805051101
87.8892236395388
87.1463438174785
86.4875042911677
85.9058646387558
85.2071645658412
84.2811926483311
83.4045215325044
82.6846572320258
82.1172243048896
81.7615651433041
81.5150111467503
80.945279903586
80.3204649515138
79.6607765733246
79.046303313867
78.7620886098952
78.6849429091979
78.5732750851861
78.8648621387133
79.7610451952095
80.3619266821101
80.7240975466479
81.1143315207706
81.5202010848857
82.0426341165953
82.8469595096296
83.3802015260883
83.5683111847042
83.6812381868057
83.714158037912
83.7760546376156
83.9527776591867
84.2527747878595
84.6068467332866
84.8691193128098
84.5100005537803
82.5551128570475
78.4308417031769
72.7997516357777
66.6906541945397
61.2865990162094
58.3935371523789
60.0282487624477
65.4272468868956
70.8094845936437
73.7892359748176
74.9394399553981
75.0452800789834
74.6173363072058
74.0191305403898
73.4815132562906
73.1495930457161
73.1674678940802
73.5967441069277
74.4338803292059
75.661486229539
77.2872968541003
78.7615390642629
79.5284008952424
80.1879087873161
81.1731582320447
82.3822091392852
83.7010661719416
84.9090922715472
85.7910590421287
86.284067838982
86.4006371312391
86.2032860236771
85.7258146930582
84.9891737317603
84.0634462908467
83.069456441747
82.2697901546414
81.9859501135158
82.2935070415344
82.963841758506
83.6619953164821
84.1221942098175
84.1625081675255
83.7216759512071
82.9177688306361
81.9419492240046
80.9700910579357
80.1345660967644
79.5437091324635
79.2365665402227
79.0970596877158
78.9290325080998
78.6221060402192
78.108953668418
77.3024389508682
76.1745933744272
74.8069641350804
73.3540695365724
71.9386622546271
70.6130370711441
69.4662354832031
68.5184377281521
67.7390466554909
67.0783175750035
66.588542486923
66.3577923832104
66.4442843218789
66.8004866120673
67.285551818381
67.7185721004816
68.1191948691359
68.6140547211117
69.2181546974469
69.8548505155657
70.5626571039792
71.3554698225014
72.0133454768339
72.2725285418348
72.2163240444346
72.1154016671712
72.160011649959
72.4555147921804
73.0640453554269
73.9999372056152
75.2244141765078
76.612201701332
78.0767395242412
79.5221149567618
80.942640249318
82.4225533487004
83.9062458599917
85.1458715091953
85.9098411552735
86.2085946913105
86.2423197367506
86.2762982765491
86.4775418034663
86.7757296270558
86.9420559696383
86.7983315182876
86.4405705613394
86.0957735043419
85.9055626563984
85.8867610034473
85.8880642196991
85.631464570611
85.1242882127733
84.5851505157575
84.0607862843503
83.4747534836316
82.708172800078
81.6109976271121
80.2140034537228
78.7079381306183
77.083758835983
75.3064649233759
73.5060847904598
71.6593515585725
69.8005263615558
68.0421385194253
66.4988465815719
65.3915669962498
64.8105317837318
64.6874886295001
65.1473131072582
66.2321670508719
67.8943432139277
69.9507375834742
71.9914329426802
73.8487431330973
75.5751939482261
77.1786004176402
78.5009591948715
79.5246734981495
80.3328538926701
80.8611075933806
81.2713435807407
81.9489834950529
83.48805429125
86.4624732559011
89.97512490106
90.2995806900615
87.0040003326036
83.0706849923091
79.9490181570459
77.68056701512
76.2418054932166
75.6336718571293
75.6821242055808
76.2156517238016
76.8219195633832
76.9920167659126
76.7424682279361
76.3445488363293
76.0000411896457
75.6946188248854
75.3095435869653
74.9156404084142
74.4222290199327
73.7356465489158
73.1181994751613
72.7502653687932
72.5194416029388
72.399654257438
72.0997241327206
71.671034519705
71.5848124631879
71.3556006794434
70.9860413700559
71.2763897319209
71.6460161396545
71.2132201007226
70.5204576584954
70.3856683435778
70.3902538233473
