900
3999.43349933624
648.556783676147
1
128
8
98.5209149691775
98.6036917486886
98.6913790495733
98.7026238563567
98.6334750681417
98.6431834583226
98.6765382810069
98.6843359180027
98.6580827713418
98.604329154098
98.6247490509041
98.660018955237
98.6675048604705
98.7062754100703
98.7299143027027
98.7066867348573
98.6655302388915
98.7060341652488
98.8185591360496
98.8327062047127
98.7989472740105
98.8256407151224
98.7723143364007
98.7240552446928
98.8652302930523
99.0641363528096
99.0444391802489
98.8780690671345
98.8596636225274
98.9113805639852
98.965258538107
98.9857235855427
98.9114779859977
98.933656443314
99.0726313722782
99.1082992142413
99.0088714304754
99.0041619470355
99.3222137354115
99.4047724025018
98.9426228819568
98.975037648842
99.2164735176785
99.2262834753232
99.0525543355925
98.911050908466
98.9246586487281
99.0868852601445
99.1765998972767
99.0373953057405
98.9089256405594
98.9741156285725
99.0866672550408
99.0740326483087
98.9155832741084
98.8115073537974
98.8032867914084
98.8165222990882
98.8137723594552
98.8018622772441
98.8290014318787
98.9153073756549
98.9077901373824
98.8801392288152
98.9719753522401
99.126733520488
99.3568399426008
99.5029152868581
99.2860354512615
99.062014102027
99.1829303576991
99.1507266976672
98.8336985557111
98.7650099371091
98.6766310963681
98.5681449484464
98.6952833705829
98.7530457463638
98.4496930539071
98.1976721012286
97.92515024606
97.5866751609876
97.4567779103619
97.3748429574466
97.0424357451227
96.9176235657351
96.9924336942957
96.7497636559397
96.0095326858204
95.1839203166462
94.594482471183
94.1258125040656
93.7204097237871
93.4334118034354
92.7407192632057
91.9960302126321
91.4817235764759
90.9716990458238
90.6881838932023
90.3430224082139
89.6858799716829
89.1977520124084
88.7678734626641
88.3435791617307
87.9472803401465
87.5092651220595
87.0573639797579
86.5966722356875
86.1270787897376
85.7293506945601
85.3742867012359
84.9046102912351
84.3207242724028
83.7636209249131
83.4307796271199
83.1759787062334
82.7869092405611
82.3494676656873
81.8932978746129
81.4325545262141
81.0804082829664
80.7692300564854
80.2888812863349
79.8372231442558
79.4200311118284
78.9678386446506
78.6330810160155
78.3268525667468
77.9618088964484
77.5205550497349
77.0397717975164
76.6311117919535
76.2413122651496
75.8541057050847
75.4855310234657
75.0699840178091
74.6580551090075
74.3194069495773
74.0957756004689
73.8029331622785
73.3104356344574
72.998768311044
72.7239608319992
72.321532122775
72.0392540985598
71.8145960696323
71.4693213871206
71.1107515921611
70.8832914141248
70.7841472288901
70.5985403434181
70.2848000914454
70.009281070214
69.8147200729813
69.6208978503651
69.4855223906384
69.4064228973366
69.2921281018008
69.2083453725117
69.1734700611
69.0569384909934
68.9496528914637
68.9401179214585
68.8748613583701
68.8297576516631
68.9282720242174
69.0130986026487
69.0930021628077
69.1423397108949
69.1089011435257
69.1455120704624
69.3359367240502
69.4847481041034
69.6028679797519
69.7936600319824
69.9831752367682
70.0843952464864
70.2196480964625
70.4237655812304
70.5571993828814
70.7381430365796
71.0210200046774
71.1761472562329
71.2555667175843
71.2963370840417
71.3772718991114
71.6303095142082
71.8901164382894
71.981122161078
72.123676667537
72.2910186415132
72.4033161541692
72.5013579388797
72.5841320016265
72.6801645376856
72.9103669375062
73.1699524340133
73.2980947017843
73.3795034593452
73.5269867234031
73.6801873233697
73.8098217106494
74.0337669209764
74.3034045877657
74.4202044005894
74.5915659376794
74.9650637517746
75.218072960129
75.3552479288715
75.5722610908737
75.8426799271577
76.1702478622455
76.4553346370693
76.7110306241824
77.0044992239671
77.3445039613269
77.6341759070482
77.9308717459134
78.225783029416
78.5611383868313
78.9216108092259
79.2424803440274
79.5730871812503
79.907204381808
80.1989989427025
80.4795003125006
80.7553608344207
81.1456025403014
81.5694066790016
81.8098138379597
82.035910444664
82.3882623723966
82.7154912228827
82.9834993177393
83.2023933901242
83.4347705288381
83.7895777141662
84.1999341035873
84.5025605621667
84.755480633545
84.973462709777
85.2100699725126
85.5215264795555
85.7843562499789
85.9983452924248
86.2151070973536
86.4466474939803
86.7145154618577
87.0096722602671
87.2203354016535
87.4273092280232
87.6532027343009
87.821560806717
87.9849146223003
88.1878694687003
88.3684591310375
88.518787391457
88.7447839948727
88.9154318215938
88.9870633315172
89.1306123498289
89.2850810012907
89.3858775563264
89.4594611927057
89.5209926080328
89.6060894212043
89.669542057992
89.7315840231167
89.8487366857665
89.8704290260306
89.8535587093165
89.7913066859911
89.6472417791995
89.4447586158709
89.2513204742425
89.074142583948
88.8256455745189
88.5272293457791
88.2441619105367
87.9429290620269
87.7184400709519
87.7284975327202
87.8171582078572
87.6692580095781
87.2636251583549
86.7386366935621
86.1730183906481
85.5892859702426
84.9664684313235
84.2695418276549
83.5728727086461
83.4090392511723
84.0973508806776
85.0481806899214
85.8128719395113
86.4225096051049
86.9722281316527
87.4689798723796
87.901189109343
88.3097822141716
88.6402389013197
88.8383760818543
88.9587502557594
89.2418427902675
89.6446950367081
89.9295083293216
90.0602413886295
89.8262821596617
89.0301953849407
88.654030633223
89.5261300915064
90.8790210931127
91.909085033476
92.4843463243441
92.8033673676336
93.0165254841627
93.2204876179246
93.355145949746
93.4542295400967
93.6269145855054
93.7925394041412
93.8791185527773
94.0196764837379
94.159111021578
94.2812016041602
94.4297822542931
94.5468866414057
94.5888820657715
94.6604844731146
94.7774951495775
94.8532960539306
94.8950935165535
94.9398960180117
94.9877857892874
95.0092569979397
95.0443658262023
95.1389235642502
95.1853357341305
95.1913673535482
95.2173174816456
95.2195128690586
95.200627485317
95.2882945272124
95.3891339626532
95.4059255677886
95.4532563295242
95.5598459749884
95.6315468988748
95.6704194704312
95.7095417751247
95.7640812412541
95.7985915279793
95.8109645445091
95.8281736797117
95.9200429576502
96.0083661808103
96.0537507501532
96.1019324491885
96.1337586318935
96.1335088525804
96.1706583069242
96.2296549199905
96.2898855956575
96.3398183747915
96.4122224697401
96.4905776871797
96.5610792740485
96.6269195097305
96.6835119642304
96.7300986964303
96.8374976129751
96.8877248130309
96.9106737387651
96.9614510201586
97.0458307629699
97.1252254040548
97.1875481811196
97.247369061446
97.3163727303094
97.3048227129784
97.3139655298635
97.3611147294474
97.3846110332484
97.428857173944
97.4677396617498
97.3744490965996
97.2513743643496
97.1782433232574
97.2289312139162
97.2797260393058
97.297706925171
97.3489310425165
97.4140116988541
97.4946525263289
97.5930442226744
97.5658912051527
97.5813109940713
97.6970279133302
97.7376322970431
97.7150921409941
97.7428823762319
97.7249659747308
97.7241155840774
97.7483307137055
97.7705087125199
97.7370154625696
97.7396536046014
97.8067825345357
97.8378450535533
97.8281400596131
97.8913322103559
97.8990005122125
97.8701321203188
97.8261790465365
97.7974087324529
97.8239586288674
97.9276628414214
97.9593825899621
97.9091099225385
97.8883886465352
97.9142642589592
97.8890047896496
97.8396184331826
97.8400198604573
97.8812752663201
97.909041263393
97.8448685554718
97.7840619773792
97.8538302747216
97.8908769915904
97.8721590661864
97.8600310738473
97.840637091128
97.8474850598986
97.8742680820525
97.8644798396082
97.8635920483996
97.8962913972474
97.8687222395062
97.7353791669329
97.6379923873361
97.5759114789909
97.5949494918342
97.6681121920043
97.7055085585877
97.6706531546931
97.6567814474457
97.6871767619836
97.6272976162208
97.4930131439499
97.497500361302
97.6267733893772
97.6948818595484
97.6936777047213
97.728050666591
97.8252313559603
97.9024093713966
97.881172618852
97.8414583635678
97.8609888152117
98.005300322682
98.1266326517533
98.1176499500444
98.1199495656883
98.2397092572635
98.3982083008532
98.5204731808401
98.488495871792
98.4322743994561
98.5034285717694
98.680452197447
98.6957429387008
98.5916390673262
98.5434799541252
98.6490285633214
98.7852268798163
98.8289412888182
98.8095277964859
98.9025628771576
98.9138197137556
98.8685873570986
98.9242463491773
98.9632813250528
99.0026399556404
99.0415049011312
99.0961502241702
99.2588538804142
99.3538424594207
99.453846258582
99.5576324875162
99.4337699858744
99.5067301214726
99.841446533923
100.230706488217
100.339972509355
99.6596422981598
99.0450571316793
98.8623448740589
98.7342357173511
98.5826858635065
98.4385626654181
98.2207126121611
97.92650742638
97.771801542505
97.8601656378651
97.9179324866161
97.822731120822
97.9018802844332
98.0252894962472
97.9350976318815
97.8394770603287
97.835440924361
97.8857287937295
97.9828444285376
98.053430528036
98.0695815936421
98.1169993915895
98.2215328215937
98.2015708612842
98.2639778578251
98.4957338736222
98.6888665658566
98.6980129599136
98.6925600995678
98.9231129190227
99.2816845505028
99.4244661175608
99.5408321641714
99.5833401146882
99.3337699728762
99.1799295689655
99.4826083712093
99.4264102417345
99.2012184374068
99.2203772878074
99.2993880952277
99.1115309362262
99.1769775578649
99.3828547838331
99.4580072764955
99.3201857275414
99.2943880485662
99.4147318475097
99.5229212458481
99.2354313146801
99.0254015497088
99.0211022348528
98.9608609891984
98.8506083154044
98.8598379302365
98.7136695824815
98.7175503153852
98.5670751543353
98.4622743497969
98.4907270951531
98.6058303182668
98.5687173622344
98.5058499190444
98.3204764604114
98.3049334299438
98.4106424865718
98.4525619645648
98.4152922798888
98.4194796061533
98.3577622740336
98.3893598539559
98.3659410457976
98.3016799927165
98.2181998744145
98.2456080375183
98.285451175661
98.3212064372095
98.2082358987498
98.1998621918945
98.2075302470253
98.1765954317064
98.1169778195621
98.1327254264591
98.0519948387292
98.0000824523652
97.9622261581162
97.9978850442306
97.9576010693856
97.8735296001264
97.7634718488587
97.7571263715358
97.6948489602815
97.5876694943595
97.5245213710771
97.4681025726308
97.2551656314648
97.1701604948236
97.0448436395139
96.8358652125844
96.5862715639279
96.3105344258745
95.9015609106226
95.4821895728121
94.6778364985755
93.7654498216283
92.5704197597061
91.0130096215029
89.6636267076919
88.8598595382599
88.3753973332798
88.1232364363316
87.897454714711
87.8135242688937
88.2121685700071
88.9491150618774
89.5229988319424
90.0847415630286
90.6519104515267
91.2985802888214
91.3680139680366
91.2876264975766
91.0977978315861
90.6135616502979
89.3219605976754
87.8197092647096
86.1646719685278
82.9549235982767
78.5014986374825
75.061198756586
70.8936876990616
66.1050321050374
61.8468757163512
57.5651770538154
53.8050157479548
50.3603500988107
46.4144541532298
43.9217530213531
41.4283622809971
39.5925774048316
38.3405953298642
38.5228649434579
39.333955719446
41.81138242351
45.1724470182187
48.7088446853477
52.6813385686009
54.8924599212014
56.8532680421341
58.5130945303296
59.7085113310554
60.6504726346577
61.6541026008491
62.5770017022738
63.3381903122321
63.3499556685127
63.6350574295426
64.3476908674052
65.4851608743107
66.9038667956453
67.2029959019792
69.958551336733
72.6592313782805
73.4059871482976
73.906982158537
74.1253879790631
76.111202899232
77.4818628192757
79.163346965205
80.8165950646179
82.058457636829
83.3368150772757
84.1000352351495
84.0960191925712
84.0797561599623
85.543143684296
86.1125265229459
86.1718229866118
86.4893837983322
86.5049406454242
86.472794902562
85.9738957881693
85.1258177911632
84.1278431738646
83.0938663310128
82.0188419408115
81.123729719714
80.4218677549469
79.9727691523734
79.9672763992091
79.8095609317491
79.7798141873576
79.325294855731
78.3331381950635
76.9751776181961
75.6952597932514
74.5400114945048
73.447792976513
72.3085826577096
71.3211270602142
70.2746502094506
69.4013293356541
68.9369488297133
68.7635847666632
68.6935974816353
68.7376730468259
68.2050336874038
67.2904584459737
66.2550995754543
65.239247922423
64.6669824729795
64.6446411660125
64.6788108780428
65.1551431411155
66.4234545740826
67.2837269637413
67.6592821479938
68.0665519030067
68.6747577039641
69.4778387628927
70.5684457785186
71.3596996490243
71.7056455790505
71.9992268068888
72.1880924552989
72.3864751260159
72.8199707636118
73.4734850988943
74.1364654224018
74.4996248943271
73.6193848334578
70.044125634053
63.2278339571929
54.4606297253119
45.2017616491868
36.595375110139
30.2114876633525
29.5739524375255
36.2907534254053
45.7274173041054
52.154084319204
55.1156864174042
56.0160304079469
55.9199451720809
55.4170633952443
54.9339700274541
54.7282504251116
54.9625810318061
55.6667614216242
56.7611666065588
57.7855150111043
58.573648110475
59.9848682819952
62.4846075009231
65.0746305751235
67.3649610042287
69.6397478062613
71.9573508572053
73.9919443486481
75.3388424594165
75.9190012489185
75.9383020458879
75.4960458410778
74.5551029027041
73.1323045165395
71.3429762348018
69.4533916320552
67.9781796609896
67.42879424471
67.9069282145996
68.9722069653673
70.0757225611024
70.7712243953367
70.7139855640334
69.7979244236691
68.2331990273457
66.3772920931639
64.5167525866442
62.828873972836
61.429489151094
60.4002548049465
59.7771119297436
59.3410465740959
58.7613108864172
57.8381584963216
56.533574952122
54.839415482311
52.8358906940831
50.6597026701521
48.471732344527
46.3578096988227
44.4039559337078
42.649967642162
41.0976461603108
39.6958299945914
38.5249268832069
37.7118321785391
37.3839691745374
37.4913028362588
37.8194444222664
38.0699498645566
38.1679279183029
38.3080598374326
38.6668212833723
39.1542098525706
39.9121458140365
41.0316119091746
42.1531489734289
42.7183590074213
42.686195977086
42.4598464269476
42.4260747157035
42.7817183025223
43.7049131205624
45.2895348288181
47.5327304989902
50.2304919596553
53.1266412856948
56.0688712612794
59.1121246831656
62.2913351990032
65.3310445541791
67.7707634147732
69.3814397419076
70.1482021288423
70.3930340164418
70.6886208286304
71.324430022663
72.0815286728229
72.5376987604633
72.4724557480036
72.0100580684359
71.4963803327033
71.2933291332875
71.4058792162562
71.51139867216
71.2386355287529
70.5440313788998
69.6674765976864
68.8239105594869
67.9369550593235
66.706733348175
64.9278736005802
62.6125421430674
59.9519829521632
57.2506527636678
54.5335070380002
51.7299427434421
48.8013454247604
45.7570284034648
42.704141106978
39.8858634858219
37.5080851261684
35.7134536499812
34.5981150895925
34.2496157893801
34.7171881547358
36.3158041168314
39.0038556335085
42.2766311180035
45.7698974181531
49.2919390577136
52.6253837252967
55.5468248535587
57.8216305856302
59.4721665378696
60.5886686185095
61.152654135318
60.9835659895788
59.2784922015911
55.5294848580252
51.9474389699351
51.1217135786552
52.9490795770367
55.2984929927524
55.9284009244614
54.8823603626667
53.6184259907544
53.0312605342686
53.3055512410538
54.4935666156107
55.9445990561679
56.4876765075493
56.0055571780904
55.1536955600721
54.4021777828592
54.0173804075119
53.8119129896983
53.3477398506703
52.4537749718621
51.4197914083999
50.5622086613335
49.8019898348288
49.1618342761155
48.6626197258407
48.1868593816568
47.6747405276615
47.0677108625492
46.6299608899571
46.4614007801702
46.5596608670431
46.7215063163768
46.7564633422228
46.3481719453732
45.8972544736807
45.989661133267
